wave,flux
306.2504509,39.7420043029538
306.5604242,60.29966924887386
306.871524,93.18188839682352
307.18375710000004,141.10891274058426
307.4971302,193.17492302414504
307.8116501,260.74091632563955
308.1273236,302.3836249522455
308.4441577,364.3235597329592
308.7621594,424.20139229505793
309.0813356,490.48676194690216
309.4016935,560.182458814636
309.7232403,642.9321253412711
310.04598300000004,735.7013562983042
310.369929,825.3933168627576
310.6950856,931.0087973767854
311.0214601,1040.4055243569464
311.34906010000003,1160.5182647277836
311.6778931,1287.939401536031
312.0079665,1421.6265356817496
312.33928810000003,1563.0396238919916
312.6718655,1718.8342362185597
313.00570639999995,1869.287979829024
313.3408189,2045.6013793672328
313.6772106,2221.681661381536
314.0148896,2412.975939381661
314.3538639,2597.270550413865
314.6941415,2801.584837529469
315.0357308,3022.164162982571
315.37863980000003,3235.146322375781
315.7228769,3459.885598781817
316.0684504,3696.6025413868574
316.4153688,3938.143815595431
316.76364069999994,4189.240970996971
317.1132746,4440.6729232722455
317.4642791,4702.031861084012
317.8166631,4966.609297727128
318.1704352,5234.794524212452
318.5256045,5510.607233553621
318.8821799,5781.079612377114
319.2401704,6073.595912130425
319.5995851,6356.938956576801
319.96043330000003,6652.173517394569
320.3227243,6948.801236410985
320.6864673,7238.705112253709
321.0516719,7543.50515781307
321.4183476,7843.006752942275
321.786504,8144.832636563767
322.1561508,8453.625434727033
322.5272977,8809.453405823153
322.8999548,9172.587702894669
323.2741319,9584.103576301684
323.649839,10012.732053553493
324.0270864,10499.260743421491
324.40588419999995,11006.99537222661
324.7862428,11554.07778164972
325.16817260000005,12141.292297854763
325.5516841,12736.112097477768
325.9367879,13351.695291615444
326.32349480000005,13938.56456072656
326.7118154,14537.372533689017
327.1017607,15137.331827312077
327.4933418,15735.382164754075
327.88656960000003,16326.78466096966
328.2814555,16931.679365842065
328.6780106,17546.067607396068
329.0762465,18185.149362802546
329.47617460000004,18844.510087418203
329.8778065,19531.477853032386
330.281154,20243.35580655785
330.6862289,21020.18347169693
331.0930432,21888.96659334395
331.5016088,22922.73328446416
331.911938,24113.527509242376
332.32404310000004,25463.148379223192
332.7379364,27013.39373747046
333.1536305,28743.81173607629
333.571138,30682.8759740504
333.9904716,32828.794271850966
334.4116443,35062.80599611279
334.834669,37375.76660193508
335.2595588,39782.304904064
335.686327,42325.98994827957
336.114987,45011.22742366975
336.5455522,47958.74698647286
336.9780363,51231.78136375944
337.41245310000005,54945.558610359294
337.8488164,59170.480553581234
338.28714019999995,64031.24907817321
338.7274388,69574.22436262664
339.1697264,75876.65711111415
339.6140175,83018.1479712772
340.06032660000005,91014.20906817516
340.5086685,99742.36418504005
340.959058,109440.7229907504
341.4115102,119974.10899621686
341.8660403,131564.59843497846
342.32266339999995,144220.73744657403
342.7813952,158003.21477309513
343.24225110000003,172992.73415934492
343.70524710000007,189195.90591989463
344.17039889999995,206698.58356522932
344.6377228,225610.8525898996
345.1072349,245884.90710721453
345.5789517,267379.97598211985
346.0528897,289980.3512589596
346.5290657,313644.9308406613
347.0074967,338374.23881521553
347.48819960000003,363721.90279144346
347.9711917,389864.79378177057
348.45649060000005,416695.8948950296
348.9441137,443396.6115894271
349.434079,470311.5861119796
349.9264043,498014.28022108384
350.4211078,525154.3346853558
350.9182079,634369.1909430545
351.4177232,824205.1503372234
351.9196722,1095713.367623795
352.42407410000004,1447986.5023643218
352.9309478,1882521.495977329
353.4403127,2397256.879257694
353.95218839999995,2993346.9552482613
354.4665945,3670952.658647512
354.983551,4263547.633771396
355.503078,4772132.5109163625
356.025196,5195030.595565292
356.5499253,5533502.239537283
357.077287,5787622.686040622
357.6073018,5956921.986004357
358.1399912,6041284.596553854
358.6753765,6041394.421685318
359.2134795,6041317.607214381
359.754322,6041575.268681161
360.2979263,6041171.193858692
360.8443147,6041453.2203296935
361.3935098,6041354.834555808
361.9455346,6041332.950832211
362.5004122,6041210.677920659
363.058166,6041427.7640265385
363.61881960000005,6041735.887370847
364.1823969,6041063.170225055
364.7489221,6041806.598977326
365.3184196,6041435.142605972
365.8909141,6040890.25721868
366.4664305,6041550.427818527
367.0449943,6042053.073622762
367.6266307,6041680.900092111
368.2113658,6041526.150983458
368.7992255,6041798.18979213
369.3902363,6041001.4923438765
369.9844249,6041055.592981684
370.5818182,6041648.109508842
371.1824436,6042108.183161043
371.7863286000001,6041708.313909769
372.3935012,6041468.617641201
373.0039896,6041709.651795803
373.6178223,6040769.9719620375
374.2350283,6041452.841012728
374.8556368,6041553.684324352
375.4796772,6041577.876814488
376.1071796,6041072.818534328
376.7381741,6041782.427477893
377.3726913,6040803.792409695
378.0107622,6041500.440958234
378.652418,6041478.308368563
379.2976904,6040827.406848804
379.9466115,6041322.52809322
380.5992136,6041448.044636539
381.2555296,6041817.90353107
381.9155926,6041302.6710688975
382.5794362,6041588.435925977
383.2470943,6041617.490637058
383.9186014,6041710.830773739
384.5939922,6041667.999023197
385.2733019,6041495.316200755
385.9565661,6041381.919609045
386.6438209,6040839.110674935
387.3351027,6041110.830431677
388.0304484,6041492.13735559
388.7298955,6041772.049153764
389.4334817,6041397.009096623
390.1412452,6040988.61628797
390.853225,6041489.310011881
391.56946,6041156.182315477
392.2899901,6041674.917368943
393.0148555,6041067.15423301
393.7440968,6041323.284848978
394.4777551,6041485.8597539775
395.2158722,6041411.230347614
395.9584903,6041431.187879591
396.7056521,6041509.090865548
397.457401,6041166.771576914
398.2137806,6041282.691279925
398.9748353,6041235.632417537
399.7406101,6041220.845248065
400.5111505,6041194.747580248
401.2865024,6041480.086533233
402.0667126,6041350.869071224
402.8518283,6041612.636456756
403.6418973,6041552.045978502
404.436968,6041343.271324645
405.2370896,6041285.017077482
406.0423117,6041493.408458233
406.8526847,6041458.185489518
407.66825960000006,6041050.830631343
408.4890879,6041729.680183062
409.3152221,6041528.832538703
410.1467152,6041357.90560714
410.9836208,6041250.610377869
411.8259934,6041342.263883243
412.673888,6041595.038230351
413.5273605,6041322.156065417
414.38646760000006,6041280.734608747
415.2512664,6041197.719750506
416.1218152,6041000.653016067
416.9981727,6041488.084895927
417.8803987,6041433.007588518
418.7685535,6041002.783130457
419.6626985,6041379.022723835
420.5628957,6041475.645117009
421.4692081,6041266.522099301
422.3816994,6041447.263871015
423.3004343,6041403.6488360185
424.2254783,6041543.582470083
425.1568978,6040946.465376264
426.0947602,6041636.457819092
427.0391337,6041632.445133604
427.9900874,6040848.70204324
428.9476917,6041264.346271835
429.9120175,6041862.222333993
430.8831369,6041564.447908383
431.8611232,6042278.276761011
432.8460504,6041671.482827437
433.8379937,6041186.963905511
434.8370293,6041320.493449873
435.8432345,6041204.673264171
436.8566878,6041789.016652604
437.8774686,6040949.256439934
438.9056575,6041993.33829116
439.9413364,6040973.062284184
440.9845882,6041120.525516965
442.035497,6041077.572079117
443.0941482,6041379.387857023
444.1606283,6041567.281420833
445.23502520000005,6041768.840195385
446.317428,6041119.965713763
447.407927,6041326.765304257
448.5066141,6041388.820230412
449.6135822,6041701.980655025
450.7289258,6041255.304639254
451.85274060000006,6041562.868180221
452.9851239,6041370.049921747
454.1261744,6041537.762378511
455.2759921,6041440.8440168975
456.4346788,6041437.346867838
457.6023374,6041339.017478798
458.7790727,6041136.492857099
459.9649909,6041400.183054018
461.1601998,6041514.879775551
462.364809,6041544.181334797
463.5789295,6041316.783570775
464.8026741000001,6041359.684259608
466.0361575,6041332.964655771
467.2794956999999,6041401.355143604
468.5328070000001,6041244.526491783
469.7962111000001,6041186.89817654
471.0698299,6041242.478142409
472.3537868,6041539.275276957
473.6482074,6040973.652893717
474.9532192,6041492.488456422
476.2689517,6041125.0016171085
477.5955362,6041779.205241405
478.93310639999993,6041403.786101614
480.2817979,6041486.31110682
481.6417484,6041481.811622192
483.01309800000007,6041371.565896457
484.3959889,6041369.135509517
485.7905654,6041486.739783052
487.1969743,6041426.019632207
488.6153648,6041071.694794413
490.0458884,6041290.544951202
491.488699,6041147.870456077
492.943953,6041635.779870678
494.4118094,6041136.678301918
495.8924299,6041545.048182802
497.3859785,6041567.320088498
498.8926222,6041681.455955531
500.4125306,6041071.659117257
501.9458762,6041191.641950041
503.4928341,6041355.906378478
505.0535827,6041576.239825084
506.628303,6041298.744599383
508.2171791999999,6042064.223491921
509.8203986,6041203.984738575
511.4381515,6041222.1393675925
513.0706316000001,6041431.19241046
514.7180356,6041463.380545392
516.3805639,6041531.189289212
518.0584200000001,6041224.933351291
519.7518110000001,6041272.357548177
521.4609475999999,6041612.46215086
523.186044,6041510.970726348
524.927318,6041508.286137756
526.6849915,6042195.510340087
528.45929,6041334.192405105
530.2504428000001,6041609.283637447
532.0586836,6041816.124871062
533.8842498,6041623.432192086
535.7273833,6041443.771513524
537.5883299,6041394.6848011175
539.46734,6041783.1558952015
541.3646685,6041769.018351061
543.2805745000001,6041299.749527136
545.2153222000001,6041210.62675428
547.1691801,6041414.043323292
549.1424218999999,6041013.250678567
551.1353259,6041782.095805184
553.1481756000001,6041396.848075015
555.1812597,6041185.545221932
557.2348721,6041322.042815875
559.3093121,6041326.8111921735
561.4048845,6041623.50444338
563.5218996,6041203.514696669
565.6606737000001,6041283.842426677
567.8215287,6041675.620605445
570.0047927,6041605.79850771
572.2107997,6041417.025805955
574.4398902,6041388.816857577
576.692411,6041238.053546648
578.9687155,6041305.86855758
581.2691637,6041634.567055874
583.5941226,6041513.723757192
585.943966,6041605.334428493
588.3190752,6041137.3155501
590.7198384999999,6041282.756657572
593.1466518,6041627.388829294
595.5999188999999,6041315.40476477
598.0800512,6041788.574579653
600.5874682,6040955.774301402
603.1225977000001,6041440.0035046525
605.6858758999999,6041456.568740693
608.2777476,6041485.080525839
610.8986664,6041570.98293001
613.549095,6041703.151522075
616.2295054,6041607.287626827
618.940379,6040628.356807609
621.6822068,6040011.232844913
624.4554901,6040654.689762771
627.2607402000001,6040922.487760449
630.0984786,6040646.236461696
632.9692378999999,6040637.999891525
635.8735614,6042923.626457993
638.8120038,6042152.750499344
641.7851312999999,6041367.535846224
644.7935217999999,6039647.5523541225
647.8377654,6043338.863418125
650.9184646000001,6041732.71839139
654.0362346,6042428.536002059
657.1917038,6038564.400247633
660.3855139,6042205.385869186
663.6183202999999,6041302.855353716
666.8907926,6039477.988104229
670.2036149,6042394.383594385
673.557486,6039583.357475868
676.9531202000001,6040162.595591645
680.3912472999999,6043959.330156559
683.8726131,6041286.24738246
687.3979803,6040271.306044694
690.9681281000001,6040201.214340876
694.5838534,6041301.088766731
698.2459709,6042549.218478021
701.9553139,6042533.9555501
703.1812034,6041331.510317459
704.2110782000001,6034408.143058947
705.2443688999999,6001476.751476896
705.7127343,6043040.533411755
706.2810885,5926489.240218572
707.3212499,5796553.722529887
708.3648661000001,5602613.269924725
709.41195,5340322.041612587
709.5191037000001,6041299.459031587
710.4625143999999,5008270.949836734
711.5165721,4607884.872153019
712.5741357,4156723.900602465
713.6352181,3699867.615380514
714.6998317000001,3275251.7292207074
715.7679891,2913561.1965372404
716.8397027999999,2638610.145425174
717.9149852,2463083.3367133485
718.9938487000001,2392333.2506083185
720.0763055,2424636.5527081685
721.162368,2544390.2984507373
722.2520481,2720876.6189036896
723.3453581,2924573.507941234
724.4423098,3130931.83119498
725.5429153,3319571.053113372
726.6471863,3477423.115269578
727.7551346,3597095.198525487
728.866772,3677540.313457483
729.9821099,3721703.684980215
731.1011599,3734003.150441658
732.2239335,3720256.9032198233
733.3504419,3685912.0449722833
734.4806963999999,3635004.723145312
735.6147081,3571533.822726118
736.7524882,3498804.204572731
737.8940474,3419158.277133293
739.0393967,3340101.289983452
740.1885467999999,3271222.9146600426
741.3415084,3227182.6808242938
742.498292,3227320.2178914286
743.658908,3287084.185999661
744.8233667999999,3408783.056766678
745.9916785,3594192.794851364
747.1638532000001,3840141.101026168
748.3399009,4138010.865734168
749.5198315,4471896.625601148
750.7036546,4816154.960030578
751.89138,5135017.870853708
753.0830171,5406252.302718901
754.2785752999999,5627369.349020484
755.4780638,5798713.242807322
756.6814917,5920140.045404918
757.8888678999999,5994846.022156414
759.1002014999999,6031277.724336399
760.3155009,6041422.540877156
761.5347749,6041456.116721397
762.7580318,6041363.412736865
763.98528,6041286.075991209
765.2165276000001,6041626.161114726
766.4517825,6041364.2464734325
767.6910527000001,6041606.193474527
768.9343458999999,6041345.548343788
770.1816697,6041270.78928163
771.4330313999999,6041344.87657087
772.6884382999999,6041528.459953505
773.9478975,6041371.111006471
775.211416,6041768.571698408
776.4790005,6041688.286063748
777.7506578,6041419.630934094
779.0263942,6041108.582573384
780.3062162,6041236.293611111
781.5901297,6041015.763583353
782.8781409,6041687.667570801
784.1702554999999,6041695.519285145
785.4664793,6041842.932652517
786.7668176,6041017.010751676
788.0712758,6041178.356482808
789.3798591,6041251.283727039
790.6925722999999,6041311.861557088
792.0094204,6041393.884977872
793.3304079,6041290.985439526
794.6555392000001,6041472.729320486
795.9848187000001,6041567.287435471
797.3182504,6041163.7793804975
798.6558382999999,6041579.083554664
799.9975861,6041014.559745517
801.3434973,6041133.152911719
802.6935752999999,6041374.299341513
804.0478232999999,6041627.707916914
805.4062443,6041267.702490067
806.7688411,6041746.7636660775
808.1356164,6041317.968144717
809.5065726,6041197.777924172
810.881712,6037544.896481733
812.2610367000001,6028394.59190735
813.6445485,6014816.900926956
815.0322493,5998248.768784817
816.4241404,5982416.504881337
817.8202233,5967149.80877832
819.2204991,5951036.45936847
820.6249687999999,5934797.686519957
822.0336331,5927062.981777205
823.4464925999999,5929779.4752374
824.8635477000001,5942045.484309628
826.2847987,5958121.960509658
827.7102456,5973461.706609474
829.1398882,5989882.647950089
830.5737261,6005201.513707697
832.0117589,6021290.13786632
833.4539857000001,6033398.097096953
834.9004057999999,6039936.180928725
836.3510179,6041890.608300451
837.8058209,6041188.413779288
839.2648132999999,6041467.879739725
840.7279934000001,6041280.521402918
842.1953594,6041140.164031638
843.6669092,6041515.730522771
845.1426408,6041428.60068933
846.6225517000001,6041310.586533397
848.1066392999999,6041520.939658328
849.5949009999999,6041297.197510527
851.0873337999999,6041161.849240896
852.5839347000001,6041478.900197905
854.0847002999999,6041287.716090117
855.5896273,6041251.319928652
857.0987119999999,6041367.33564489
858.6119507000001,6041499.11833986
860.1293393999999,6041329.139505252
861.650874,6041459.402341343
863.1765502000001,6041490.657432567
864.7063635,6041257.659023435
866.2403094,6041336.348469251
867.778383,6041149.03002128
869.3205793999999,6041839.850766764
870.8668935000001,6041288.739347925
872.4173199999999,6041183.783607182
873.9718536,6041532.002847607
875.5304886,6041386.940272795
877.0932193,6041328.881488076
878.6600399,6041058.234669288
880.2309443,6041762.417351128
881.8059264000001,6041203.312318431
883.3849798,6041418.003360568
884.9680981,6041429.322478843
886.5552747000002,6041397.31540148
888.1465029,6041060.210288429
889.7417757000001,6041264.359633659
891.3410862,6041602.531741967
892.9444273,6041232.975990633
894.5517916000001,6041555.92160339
896.1631719000001,6041299.317566822
897.7785605,6041622.802593856
899.3979498,6041630.69443692
901.0213321,6041283.673450068
902.6486995,6041479.290664049
904.280044,6041292.442164497
905.9153575,6041270.44394296
907.5546319,6041050.794765208
909.1978586,6041153.945523327
910.8450295,6041256.961517931
912.4961358,6041027.299609391
914.1511691,6041785.9786400935
915.8101205,6041537.5595049225
917.4729813,6041242.926993521
919.1397426,6041077.478600496
920.8103953,6041337.505155128
922.4849303,6041133.543975286
924.1633386,6041576.44108139
925.8456109,6041554.54729999
927.5317378,6041214.256195001
929.22171,6041894.412019456
930.9155179,6041482.448954918
932.6131521,6041583.984047699
934.3146028,6041736.247791188
936.0198606,6041440.082229637
937.7289155,6041409.849225984
939.4417579,6041478.336114589
941.1583779,6041314.983901771
942.8787656,6041395.1008411925
944.6029109,6041840.892728483
946.3308041,6041876.075752604
948.0624349,6040986.72776355
949.7977933,6041480.451556994
951.5368692,6041445.860766117
953.2796523,6041193.790342455
955.0261327,6041281.1139344815
956.7762999,6041352.118376207
958.5301437,6041402.989568533
960.2876539,6041168.233986389
962.0488201,6041106.01089034
963.813632,6041381.707818882
965.5820793,6040956.1186445085
967.3541517,6041766.752679353
969.1298386,6041809.955394045
970.9091298,6040680.684005692
972.6920149,6042111.601190719
974.4784835,6040792.893440379
976.2685251,6041733.956126005
978.0621293,6041590.435390086
979.8592859,6042133.465484602
981.6599843,6042873.602297604
983.4642142,6041213.157967523
985.2719651,6040836.4467942575
987.0832269,6040873.194806333
988.897989,6040841.138829352
990.7162412,6041645.679377751
992.5379731,6041289.37266297
994.3631745,6041552.363521826
996.191835,6031455.916302208
998.0239445,6001213.5884593325
999.8594926,5942307.909043522
1001.698469,5846733.8667527065
1003.540864,5707560.284899212
1005.386668,5522361.6056684535
1007.235869,5285556.154156412
1009.088458,4995908.391635535
1010.944426,4669098.888067725
1012.803762,4326423.245774676
1014.666456,3984820.096130318
1016.532498,3657840.0516418833
1018.401878,3356337.299297148
1020.274588,3091008.3925567083
1022.150616,2866481.986331553
1024.029953,2687686.6733198487
1025.912591,2545569.553534901
1027.798518,2433091.422565682
1029.687726,2340000.9985964247
1031.580205,2259862.4810585207
1033.475945,2183585.1058121133
1035.3749380000002,2107749.907593725
1037.277175,2028780.953520708
1039.182645,1942645.3150049704
1041.09134,1850905.153987476
1043.003251,1752263.8371960246
1044.918368,1648720.01310298
1046.836683,1541831.0127302962
1048.758188,1434952.265840348
1050.682872,1328869.946519811
1052.610728,1226942.3993354845
1054.541747,1132380.159601252
1056.4759210000002,1044806.0206476344
1058.41324,966826.7752076852
1060.353697,897870.1805388415
1062.297282,837964.6889393901
1064.243989,785584.795399283
1066.193809,741325.6278458548
1068.146734,703964.5906869301
1070.102755,670864.5047357813
1072.061865,641802.6148313585
1074.024056,615294.2940189933
1075.989321,590406.671789814
1077.957651,566059.7307356157
1079.92904,542356.2179932783
1081.9034800000002,518507.8847868306
1083.880963,493817.5933955719
1085.861482,469875.9860790502
1087.8450300000002,446496.0053174853
1089.8316,422639.9163826367
1091.821185,400769.2545503244
1093.8137789999998,379901.84814366815
1095.809373,360343.3140932901
1097.807962,341783.01874921826
1099.809539,325250.5982988232
1101.814098,310652.18691938143
1103.821631,297396.6705832861
1105.832134,285578.9999922994
1107.845599,275461.12799395283
1109.86202,266508.4243037332
1111.881392,258712.15499741075
1113.903708,251345.80207787163
1115.928963,245037.40914595497
1117.95715,238888.33559601448
