wave,flux
306.2504509,93.3229615833818
306.5604242,156.45857324032426
306.871524,226.1126563181716
307.18375710000004,335.3904069649157
307.4971302,470.6675341504056
307.8116501,630.1687409540477
308.1273236,739.3749576296381
308.4441577,871.0595525065158
308.7621594,1020.094535315514
309.0813356,1179.924106037996
309.4016935,1354.5265381217205
309.7232403,1554.8284249391934
310.04598300000004,1767.338703931828
310.369929,1992.7826572079748
310.6950856,2244.5793144085465
311.0214601,2517.464545775648
311.34906010000003,2795.181360405551
311.6778931,3101.436146632332
312.0079665,3431.3255907930616
312.33928810000003,3769.0321810591167
312.6718655,4135.338065347124
313.00570639999995,4533.5619751733
313.3408189,4928.157175687536
313.6772106,5353.622138490113
314.0148896,5821.23783202514
314.3538639,6286.8096786272645
314.6941415,6779.678472100419
315.0357308,7303.184346826144
315.37863980000003,7833.849567468354
315.7228769,8385.308916034748
316.0684504,8976.330179224096
316.4153688,9561.886886974253
316.76364069999994,10178.1414486956
317.1132746,10796.847069906917
317.4642791,11436.866653325516
317.8166631,12103.509885307065
318.1704352,12756.30799580819
318.5256045,13422.88284938829
318.8821799,14103.467301392371
319.2401704,14775.920232994757
319.5995851,15472.235879129035
319.96043330000003,16158.502897897666
320.3227243,16860.910481488147
320.6864673,17585.729531543482
321.0516719,18318.910916001158
321.4183476,19050.76744877554
321.786504,19804.04156200364
322.1561508,20572.496755242624
322.5272977,21385.012486104984
322.8999548,22216.09986883269
323.2741319,23113.65183566317
323.649839,24087.437332650738
324.0270864,25089.349404330133
324.40588419999995,26164.096509629224
324.7862428,27298.739751709283
325.16817260000005,28512.86469150161
325.5516841,29779.603396488423
325.9367879,31093.387109413085
326.32349480000005,32437.017895164063
326.7118154,33775.90771125315
327.1017607,35162.40355611205
327.4933418,36572.79282961617
327.88656960000003,38014.325247877634
328.2814555,39452.591319390274
328.6780106,40991.416215007455
329.0762465,42510.667497391565
329.47617460000004,44116.98953152626
329.8778065,45796.05440106778
330.281154,47543.231561277615
330.6862289,49368.63530198323
331.0930432,51263.0451905487
331.5016088,53293.83056158456
331.911938,55398.314549946415
332.32404310000004,57701.24448039445
332.7379364,60122.60217775233
333.1536305,62748.2355597191
333.571138,65636.37895930294
333.9904716,68783.14525388327
334.4116443,72247.96533744072
334.834669,76072.36675808302
335.2595588,80347.10522598749
335.686327,85241.782081569
336.114987,90709.04294253956
336.5455522,97014.9608540289
336.9780363,104198.12635822636
337.41245310000005,112532.27575089308
337.8488164,122010.59904753984
338.28714019999995,132922.62506449778
338.7274388,145300.810011269
339.1697264,159328.85817965804
339.6140175,175194.79262435975
340.06032660000005,192922.7447212056
340.5086685,212747.0556386105
340.959058,234706.514005695
341.4115102,259044.89377095865
341.8660403,285782.86036276014
342.32266339999995,315348.49639785266
342.7813952,347686.0650515682
343.24225110000003,382992.854049559
343.70524710000007,421294.3712209932
344.17039889999995,462882.56233728025
344.6377228,507531.7631137188
345.1072349,555179.7410410887
345.5789517,605830.9720740705
346.0528897,659294.7617271323
346.5290657,715079.3481078234
347.0074967,773427.5809365213
347.48819960000003,833288.0210877741
347.9711917,895092.4955825909
348.45649060000005,958026.3056956616
348.9441137,1022032.1580386796
349.434079,1086543.949075687
349.9264043,1151890.5949821563
350.4211078,1217431.8384078278
350.9182079,1283082.2490241905
351.4177232,1348879.0935319474
351.9196722,1414092.0851778388
352.42407410000004,1479045.0647171412
352.9309478,1543242.166680454
353.4403127,1606694.8196683803
353.95218839999995,1668612.517705185
354.4665945,1728431.578060452
354.983551,1786327.268681266
355.503078,1841556.460529076
356.025196,1893480.160032385
356.5499253,1941526.142185485
357.077287,1985207.1242233424
357.6073018,2024263.2136151227
358.1399912,2058289.5164217225
358.6753765,2086699.6556708056
359.2134795,2109240.8961829944
359.754322,2125806.40790131
360.2979263,2136444.3531670286
360.8443147,2141375.773785788
361.3935098,2141008.6559515297
361.9455346,2135186.600701074
362.5004122,2125440.3372216863
363.058166,2112554.3963624923
363.61881960000005,2097346.102582037
364.1823969,2081361.35283797
364.7489221,2066664.5225775803
365.3184196,2054248.9281320544
365.8909141,2045350.4380165003
366.4664305,2042067.961885186
367.0449943,2044886.816859065
367.6266307,2054260.716787889
368.2113658,2070241.3089143776
368.7992255,2091295.6545467365
369.3902363,2116839.139084471
369.9844249,2144662.016379148
370.5818182,2172477.1060325387
371.1824436,2197775.842184465
371.7863286000001,2218694.9748162595
372.3935012,2233398.0141502763
373.0039896,2240634.468215779
373.6178223,2240457.476656125
374.2350283,2232376.898517941
374.8556368,2219077.797116257
375.4796772,2202123.2764848643
376.1071796,2184416.5663162046
376.7381741,2168018.0219568773
377.3726913,2156837.2364040585
378.0107622,2153120.573150406
378.652418,2159463.8220580127
379.2976904,2177350.6607178748
379.9466115,2208373.690457864
380.5992136,2252849.504144949
381.2555296,2310610.628322912
381.9155926,2381174.8499323674
382.5794362,2462817.7285278025
383.2470943,2553989.430986114
383.9186014,2652609.9225946767
384.5939922,2755847.821353223
385.2733019,2862006.374362265
385.9565661,2968001.6572027323
386.6438209,3071669.951133255
387.3351027,3173126.0804814217
388.0304484,3270793.055572358
388.7298955,3365224.784853323
389.4334817,3457276.6556326044
390.1412452,3549127.6443310776
390.853225,3643429.77646357
391.56946,3741602.011757754
392.2899901,3845416.606024266
393.0148555,3954766.165069395
393.7440968,4070128.9895491255
394.4777551,4188074.051379461
395.2158722,4308097.353951161
395.9584903,4428580.494201796
396.7056521,4544283.259755508
397.457401,4654706.325255903
398.2137806,4759457.733438358
398.9748353,4860072.434177847
399.7406101,4958708.332477887
400.5111505,5059045.874083227
401.2865024,5160967.116192653
402.0667126,5265777.076597923
402.8518283,5372618.332142681
403.6418973,5481246.5115343295
404.436968,5588439.2925365735
405.2370896,5690469.901667737
406.0423117,5782963.485078511
406.8526847,5859698.88264364
407.66825960000006,5921080.548597952
408.4890879,5968194.154888216
409.3152221,6001421.375453503
410.1467152,6023127.676899929
410.9836208,6035416.926787049
411.8259934,6040612.754615096
412.673888,6041525.046851598
413.5273605,6041355.644773855
414.38646760000006,6041756.323374009
415.2512664,6041571.637966945
416.1218152,6041265.800321996
416.9981727,6041739.871543622
417.8803987,6041642.322701946
418.7685535,6041689.251391483
419.6626985,6041453.094747701
420.5628957,6041400.966197036
421.4692081,6041402.526385584
422.3816994,6041603.580784624
423.3004343,6041502.551500205
424.2254783,6041513.076404588
425.1568978,6041239.767463692
426.0947602,6041094.100718638
427.0391337,6041533.883950084
427.9900874,6041332.791768048
428.9476917,6040699.250478418
429.9120175,6041328.414028358
430.8831369,6041410.370436321
431.8611232,6041060.981606563
432.8460504,6041870.372839991
433.8379937,6041565.0342427865
434.8370293,6041323.43578981
435.8432345,6041185.4900456285
436.8566878,6041333.109257188
437.8774686,6041501.24979628
438.9056575,6041273.786295182
439.9413364,6041356.5783427125
440.9845882,6041224.920529669
442.035497,6040998.383468648
443.0941482,6041433.117619766
444.1606283,6041902.291687067
445.23502520000005,6041024.806082464
446.317428,6041307.963695548
447.407927,6041697.1034810925
448.5066141,6041433.793513085
449.6135822,6041358.764618947
450.7289258,6041323.578476735
451.85274060000006,6041546.080504149
452.9851239,6041351.619013398
454.1261744,6041300.954579174
455.2759921,6041630.76569986
456.4346788,6041497.230987129
457.6023374,6041757.440469236
458.7790727,6041471.3469903385
459.9649909,6041598.288064917
461.1601998,6041714.346913248
462.364809,6041136.308370536
463.5789295,6041508.165755303
464.8026741000001,6041277.781644079
466.0361575,6041403.047943844
467.2794956999999,6041438.54919807
468.5328070000001,6041613.464382635
469.7962111000001,6041787.119412118
471.0698299,6041220.344519001
472.3537868,6041378.595153326
473.6482074,6041548.298123195
474.9532192,6041738.234876162
476.2689517,6041696.04129598
477.5955362,6041842.943007283
478.93310639999993,6041299.480316282
480.2817979,6041334.200932913
481.6417484,6041291.326058682
483.01309800000007,6041504.388128985
484.3959889,6040916.573225679
485.7905654,6041351.609002473
487.1969743,6041367.261083125
488.6153648,6041522.482063848
490.0458884,6041264.865232489
491.488699,6041368.4277495565
492.943953,6042053.613918468
494.4118094,6041176.345027912
495.8924299,6041478.536577504
497.3859785,6041400.539497878
498.8926222,6041591.6893787
500.4125306,6041235.837883537
501.9458762,6041520.335310894
503.4928341,6041674.897544097
505.0535827,6041523.18460875
506.628303,6041537.877337312
508.2171791999999,6041459.501097502
509.8203986,6041461.267393063
511.4381515,6040943.40008585
513.0706316000001,6041073.134774291
514.7180356,6041296.860250384
516.3805639,6041382.889295281
518.0584200000001,6041462.392170066
519.7518110000001,6041246.062393962
521.4609475999999,6041347.200718225
523.186044,6041965.410089945
524.927318,6041235.145982541
526.6849915,6041383.368184897
528.45929,6041899.021512801
530.2504428000001,6041690.798733847
532.0586836,6041427.8646474825
533.8842498,6041279.576159295
535.7273833,6041516.43114713
537.5883299,6041306.498307401
539.46734,6041255.197147478
541.3646685,6041819.476991395
543.2805745000001,6041658.462485664
545.2153222000001,6041418.378255017
547.1691801,6041709.738397543
549.1424218999999,6041894.161522387
551.1353259,6041339.737439688
553.1481756000001,6041617.495020621
555.1812597,6041379.477076823
557.2348721,6041406.764977044
559.3093121,6041290.675394679
561.4048845,6041567.493366865
563.5218996,6041534.680838885
565.6606737000001,6041360.892855492
567.8215287,6041092.709042467
570.0047927,6041669.272325735
572.2107997,6041707.496659459
574.4398902,6041144.8498558365
576.692411,6041410.031930043
578.9687155,6041579.332043352
581.2691637,6040982.617676223
583.5941226,6041488.227209671
585.943966,6040871.815740416
588.3190752,6041129.463831708
590.7198384999999,6041460.239030813
593.1466518,6041249.041168316
595.5999188999999,6041144.888509518
598.0800512,6041541.246262187
600.5874682,6042041.049555563
603.1225977000001,6041742.387322401
605.6858758999999,6041230.022368405
608.2777476,6041341.339838402
610.8986664,6041418.716024622
613.549095,6041083.687790497
616.2295054,6041536.655990041
618.940379,6040991.833238344
621.6822068,6041876.117533143
624.4554901,6041740.747553586
627.2607402000001,6041936.502333169
630.0984786,6041424.982133105
632.9692378999999,6042109.788970816
635.8735614,6041359.259935098
638.8120038,6041482.444880722
641.7851312999999,6041156.179561491
644.7935217999999,6044456.187685507
647.8377654,6040472.767763459
650.9184646000001,6041085.874020701
654.0362346,6041374.348332061
703.1812034,6041331.510317459
704.2110782000001,6034408.143058947
705.2443688999999,6001476.751476896
706.2810885,5926489.240218572
707.3212499,5796553.722529887
708.3648661000001,5602613.269924725
709.41195,5340322.041612587
710.4625143999999,5008270.949836734
711.5165721,4607884.872153019
712.5741357,4156723.900602465
713.6352181,3699867.615380514
714.6998317000001,3275251.7292207074
715.7679891,2913561.1965372404
716.8397027999999,2638610.145425174
717.9149852,2463083.3367133485
718.9938487000001,2392333.2506083185
720.0763055,2424636.5527081685
721.162368,2544390.2984507373
722.2520481,2720876.6189036896
723.3453581,2924573.507941234
724.4423098,3130931.83119498
725.5429153,3319571.053113372
726.6471863,3477423.115269578
727.7551346,3597095.198525487
728.866772,3677540.313457483
729.9821099,3721703.684980215
731.1011599,3734003.150441658
732.2239335,3720256.9032198233
733.3504419,3685912.0449722833
734.4806963999999,3635004.723145312
735.6147081,3571533.822726118
736.7524882,3498804.204572731
737.8940474,3419158.277133293
739.0393967,3340101.289983452
740.1885467999999,3271222.9146600426
741.3415084,3227182.6808242938
742.498292,3227320.2178914286
743.658908,3287084.185999661
744.8233667999999,3408783.056766678
745.9916785,3594192.794851364
747.1638532000001,3840141.101026168
748.3399009,4138010.865734168
749.5198315,4471896.625601148
750.7036546,4816154.960030578
751.89138,5135017.870853708
753.0830171,5406252.302718901
754.2785752999999,5627369.349020484
755.4780638,5798713.242807322
756.6814917,5920140.045404918
757.8888678999999,5994846.022156414
759.1002014999999,6031277.724336399
760.3155009,6041422.540877156
761.5347749,6041456.116721397
762.7580318,6041363.412736865
763.98528,6041286.075991209
765.2165276000001,6041626.161114726
766.4517825,6041364.2464734325
767.6910527000001,6041606.193474527
768.9343458999999,6041345.548343788
770.1816697,6041270.78928163
771.4330313999999,6041344.87657087
772.6884382999999,6041528.459953505
773.9478975,6041371.111006471
775.211416,6041768.571698408
776.4790005,6041688.286063748
777.7506578,6041419.630934094
779.0263942,6041108.582573384
780.3062162,6041236.293611111
781.5901297,6041015.763583353
782.8781409,6041687.667570801
784.1702554999999,6041695.519285145
785.4664793,6041842.932652517
786.7668176,6041017.010751676
788.0712758,6041178.356482808
789.3798591,6041251.283727039
790.6925722999999,6041311.861557088
792.0094204,6041393.884977872
793.3304079,6041290.985439526
794.6555392000001,6041472.729320486
795.9848187000001,6041567.287435471
797.3182504,6041163.7793804975
798.6558382999999,6041579.083554664
799.9975861,6041014.559745517
801.3434973,6041133.152911719
802.6935752999999,6041374.299341513
804.0478232999999,6041627.707916914
805.4062443,6041267.702490067
806.7688411,6041746.7636660775
808.1356164,6041317.968144717
809.5065726,6041197.777924172
810.881712,6037544.896481733
812.2610367000001,6028394.59190735
813.6445485,6014816.900926956
815.0322493,5998248.768784817
816.4241404,5982416.504881337
817.8202233,5967149.80877832
819.2204991,5951036.45936847
820.6249687999999,5934797.686519957
822.0336331,5927062.981777205
823.4464925999999,5929779.4752374
824.8635477000001,5942045.484309628
826.2847987,5958121.960509658
827.7102456,5973461.706609474
829.1398882,5989882.647950089
830.5737261,6005201.513707697
832.0117589,6021290.13786632
833.4539857000001,6033398.097096953
834.9004057999999,6039936.180928725
836.3510179,6041890.608300451
837.8058209,6041188.413779288
839.2648132999999,6041467.879739725
840.7279934000001,6041280.521402918
842.1953594,6041140.164031638
843.6669092,6041515.730522771
845.1426408,6041428.60068933
846.6225517000001,6041310.586533397
848.1066392999999,6041520.939658328
849.5949009999999,6041297.197510527
851.0873337999999,6041161.849240896
852.5839347000001,6041478.900197905
854.0847002999999,6041287.716090117
855.5896273,6041251.319928652
857.0987119999999,6041367.33564489
858.6119507000001,6041499.11833986
860.1293393999999,6041329.139505252
861.650874,6041459.402341343
863.1765502000001,6041490.657432567
864.7063635,6041257.659023435
866.2403094,6041336.348469251
867.778383,6041149.03002128
869.3205793999999,6041839.850766764
870.8668935000001,6041288.739347925
872.4173199999999,6041183.783607182
873.9718536,6041532.002847607
875.5304886,6041386.940272795
877.0932193,6041328.881488076
878.6600399,6041058.234669288
880.2309443,6041762.417351128
881.8059264000001,6041203.312318431
883.3849798,6041418.003360568
884.9680981,6041429.322478843
886.5552747000002,6041397.31540148
888.1465029,6041060.210288429
889.7417757000001,6041264.359633659
891.3410862,6041602.531741967
892.9444273,6041232.975990633
894.5517916000001,6041555.92160339
896.1631719000001,6041299.317566822
897.7785605,6041622.802593856
899.3979498,6041630.69443692
901.0213321,6041283.673450068
902.6486995,6041479.290664049
904.280044,6041292.442164497
905.9153575,6041270.44394296
907.5546319,6041050.794765208
909.1978586,6041153.945523327
910.8450295,6041256.961517931
912.4961358,6041027.299609391
914.1511691,6041785.9786400935
915.8101205,6041537.5595049225
917.4729813,6041242.926993521
919.1397426,6041077.478600496
920.8103953,6041337.505155128
922.4849303,6041133.543975286
924.1633386,6041576.44108139
925.8456109,6041554.54729999
927.5317378,6041214.256195001
929.22171,6041894.412019456
930.9155179,6041482.448954918
932.6131521,6041583.984047699
934.3146028,6041736.247791188
936.0198606,6041440.082229637
937.7289155,6041409.849225984
939.4417579,6041478.336114589
941.1583779,6041314.983901771
942.8787656,6041395.1008411925
944.6029109,6041840.892728483
946.3308041,6041876.075752604
948.0624349,6040986.72776355
949.7977933,6041480.451556994
951.5368692,6041445.860766117
953.2796523,6041193.790342455
955.0261327,6041281.1139344815
956.7762999,6041352.118376207
958.5301437,6041402.989568533
960.2876539,6041168.233986389
962.0488201,6041106.01089034
963.813632,6041381.707818882
965.5820793,6040956.1186445085
967.3541517,6041766.752679353
969.1298386,6041809.955394045
970.9091298,6040680.684005692
972.6920149,6042111.601190719
974.4784835,6040792.893440379
976.2685251,6041733.956126005
978.0621293,6041590.435390086
979.8592859,6042133.465484602
981.6599843,6042873.602297604
983.4642142,6041213.157967523
985.2719651,6040836.4467942575
987.0832269,6040873.194806333
988.897989,6040841.138829352
990.7162412,6041645.679377751
992.5379731,6041289.37266297
994.3631745,6041552.363521826
996.191835,6031455.916302208
998.0239445,6001213.5884593325
999.8594926,5942307.909043522
1001.698469,5846733.8667527065
1003.540864,5707560.284899212
1005.386668,5522361.6056684535
1007.235869,5285556.154156412
1009.088458,4995908.391635535
1010.944426,4669098.888067725
1012.803762,4326423.245774676
1014.666456,3984820.096130318
1016.532498,3657840.0516418833
1018.401878,3356337.299297148
1020.274588,3091008.3925567083
1022.150616,2866481.986331553
1024.029953,2687686.6733198487
1025.912591,2545569.553534901
1027.798518,2433091.422565682
1029.687726,2340000.9985964247
1031.580205,2259862.4810585207
1033.475945,2183585.1058121133
1035.3749380000002,2107749.907593725
1037.277175,2028780.953520708
1039.182645,1942645.3150049704
1041.09134,1850905.153987476
1043.003251,1752263.8371960246
1044.918368,1648720.01310298
1046.836683,1541831.0127302962
1048.758188,1434952.265840348
1050.682872,1328869.946519811
1052.610728,1226942.3993354845
1054.541747,1132380.159601252
1056.4759210000002,1044806.0206476344
1058.41324,966826.7752076852
1060.353697,897870.1805388415
1062.297282,837964.6889393901
1064.243989,785584.795399283
1066.193809,741325.6278458548
1068.146734,703964.5906869301
1070.102755,670864.5047357813
1072.061865,641802.6148313585
1074.024056,615294.2940189933
1075.989321,590406.671789814
1077.957651,566059.7307356157
1079.92904,542356.2179932783
1081.9034800000002,518507.8847868306
1083.880963,493817.5933955719
1085.861482,469875.9860790502
1087.8450300000002,446496.0053174853
1089.8316,422639.9163826367
1091.821185,400769.2545503244
1093.8137789999998,379901.84814366815
1095.809373,360343.3140932901
1097.807962,341783.01874921826
1099.809539,325250.5982988232
1101.814098,310652.18691938143
1103.821631,297396.6705832861
1105.832134,285578.9999922994
1107.845599,275461.12799395283
1109.86202,266508.4243037332
1111.881392,258712.15499741075
1113.903708,251345.80207787163
1115.928963,245037.40914595497
1117.95715,238888.33559601448
1119.988266,232735.31006177596
1122.022303,226328.7901872597
1124.059256,219348.72089459345
1126.09912,212541.5018875947
1128.14189,205019.6022342709
1130.187561,197205.0203854668
1132.236128,188992.34282592204
1134.287585,180442.53598648915
1136.341929,172198.97541633062
1138.3991529999998,163901.43355782225
1140.459254,155589.14701926356
1142.522228,147631.50257439114
1144.588069,140017.6072228972
1146.6567730000002,132604.9878781259
1148.728337,125664.53389932936
