wave,flux
306.2504509,1.051660492036414
306.5604242,1.4126124225638952
306.871524,-1.0078652612631025
307.18375710000004,1.7760930931363943
307.4971302,3.9556229307171766
307.8116501,3.784200142712234
308.1273236,3.86693801697322
308.4441577,-3.688034330385071
308.7621594,-0.0676798285292834
309.0813356,3.2799126299089125
309.4016935,4.988687338514252
309.7232403,6.847473685721231
310.04598300000004,9.136418449027207
310.369929,0.966526974252108
310.6950856,6.1791721128700665
311.0214601,-0.5954276811127865
311.34906010000003,5.691116948013733
311.6778931,-2.48645838037125
312.0079665,36.4402388416767
312.33928810000003,176.58555753145126
312.6718655,422.6994140164227
313.00570639999995,892.7912992625189
313.3408189,1552.5305996290203
313.6772106,2501.412025567339
314.0148896,3747.536771374383
314.3538639,5299.316907903659
314.6941415,7125.955655418175
315.0357308,9091.91458331529
315.37863980000003,11274.89913294584
315.7228769,13622.06055610963
316.0684504,16143.802986038932
316.4153688,18672.92973870081
316.76364069999994,21171.05964873916
317.1132746,23637.57871688273
317.4642791,26102.57119577229
317.8166631,28630.40830280382
318.1704352,30917.170085820308
318.5256045,33009.51737676912
318.8821799,34980.81536273435
319.2401704,36940.58324460337
319.5995851,38990.25201225972
319.96043330000003,41098.99833996308
320.3227243,43501.14500943243
320.6864673,46186.021327810886
321.0516719,49431.3251964457
321.4183476,53120.06733477877
321.786504,57483.948065284974
322.1561508,62272.11807638346
322.5272977,67503.9122833231
322.8999548,72951.34546991228
323.2741319,78570.53206851076
323.649839,84197.19278566896
324.0270864,89785.95325053426
324.40588419999995,94943.03547117338
324.7862428,99772.89753730944
325.16817260000005,104098.08169554092
325.5516841,108015.73886721306
325.9367879,111592.50850700447
326.32349480000005,115026.53149012927
326.7118154,118260.20840206007
327.1017607,121476.2661123751
327.4933418,124830.30699369132
327.88656960000003,128532.44607501283
328.2814555,132621.49788877825
328.6780106,137416.62266324743
329.0762465,142866.1636259591
329.47617460000004,148738.2371703888
329.8778065,155339.89993300012
330.281154,162606.67337253288
330.6862289,170706.95183052655
331.0930432,179496.89433511705
331.5016088,188727.84074114263
331.911938,198333.0587117173
332.32404310000004,208505.9768193201
332.7379364,218802.3028315576
333.1536305,229489.76611527512
333.571138,240369.2847132579
333.9904716,251681.69860033088
334.4116443,263597.00763142126
334.834669,276442.7059324008
335.2595588,290354.7715569111
335.686327,305377.9024637561
336.114987,321882.0412167329
336.5455522,339874.0991191189
336.9780363,359082.42825174646
337.41245310000005,379390.78028726456
337.8488164,400508.2542985699
338.28714019999995,421918.3791811167
338.7274388,443633.5400169881
339.1697264,465360.87670251576
339.6140175,486969.8596921406
340.06032660000005,508085.1409805058
340.5086685,528874.7720523323
340.959058,550015.3494693971
341.4115102,571436.1074442312
341.8660403,593657.0841690906
342.32266339999995,616300.1255674881
342.7813952,640227.1709709372
343.24225110000003,665039.0638682378
343.70524710000007,691065.7406516497
344.17039889999995,719337.5926567221
344.6377228,748482.113175837
345.1072349,779756.695186513
345.5789517,813999.5095484449
346.0528897,852321.3582758858
346.5290657,896208.8594468158
347.0074967,947366.7603432148
347.48819960000003,1009590.4413631832
347.9711917,1086315.2984213172
348.45649060000005,1183311.1665264242
348.9441137,1306622.821123971
349.434079,1461420.1661352157
349.9264043,1657031.6580677966
350.4211078,1898869.844291353
350.9182079,2195259.2386251283
351.4177232,2541924.750412071
351.9196722,2931277.0879698773
352.42407410000004,3349704.5689622136
352.9309478,3784327.142618422
353.4403127,4218037.758496147
353.95218839999995,4632022.768331892
354.4665945,5006241.675325795
354.983551,5318818.312838058
355.503078,5566474.499945808
356.025196,5752547.249914672
356.5499253,5884999.012022259
357.077287,5970087.014430063
357.6073018,6017921.134978175
358.1399912,6037271.55578464
358.6753765,6041360.027456895
359.2134795,6040988.204000705
359.754322,6041883.409795026
360.2979263,6041423.374223603
360.8443147,6041450.47593367
361.3935098,6041251.406691282
361.9455346,6041223.937475856
362.5004122,6040675.906455651
363.058166,6041505.771024472
363.61881960000005,6041555.906281574
364.1823969,6040789.134068599
364.7489221,6041574.601507164
365.3184196,6041530.221769514
365.8909141,6040796.602247838
366.4664305,6041339.415330113
367.0449943,6041370.437026115
367.6266307,6041427.357317068
368.2113658,6041816.9040072365
368.7992255,6041175.501772626
369.3902363,6041618.811526368
369.9844249,6041639.715517952
370.5818182,6041889.339460841
371.1824436,6041804.354878343
371.7863286000001,6041367.9227505615
372.3935012,6041271.342389378
373.0039896,6041650.913983395
373.6178223,6041265.132765395
374.2350283,6041036.876907614
374.8556368,6041435.297165119
375.4796772,6041434.957346965
376.1071796,6041158.875582945
376.7381741,6041250.147013208
377.3726913,6041583.425111992
378.0107622,6042068.210285009
378.652418,6041639.904856485
379.2976904,6041117.753842964
379.9466115,6041614.32957409
380.5992136,6041349.682026273
381.2555296,6041471.374352844
381.9155926,6041579.126152451
382.5794362,6041363.00351181
383.2470943,6041265.753606824
383.9186014,6041472.063792202
384.5939922,6041466.629716218
385.2733019,6041551.19842131
385.9565661,6040752.28555679
386.6438209,6041101.683482975
387.3351027,6041269.398877367
388.0304484,6041344.021584527
388.7298955,6041739.468137624
389.4334817,6041587.447420263
390.1412452,6041055.916147932
390.853225,6041858.603033178
391.56946,6041689.203033808
392.2899901,6041468.136576045
393.0148555,6040904.6383435065
393.7440968,6041621.6723710615
394.4777551,6041900.043545447
395.2158722,6041593.264814562
395.9584903,6041345.306218278
396.7056521,6041084.282771693
397.457401,6041869.9790744735
398.2137806,6041783.609553244
398.9748353,6041008.022823243
399.7406101,6041855.081498121
400.5111505,6041590.93664573
401.2865024,6041911.502562999
402.0667126,6041352.261918565
402.8518283,6041377.978573076
403.6418973,6041291.148124508
404.436968,6041679.787098127
405.2370896,6041692.555300566
406.0423117,6041768.259187745
406.8526847,6040890.5239506215
407.66825960000006,6041769.121812691
408.4890879,6041076.640398298
409.3152221,6041724.637373992
410.1467152,6041584.662699986
410.9836208,6041516.266734608
411.8259934,6041467.028533246
412.673888,6041699.756626688
413.5273605,6041383.700727868
414.38646760000006,6041427.348705279
415.2512664,6041257.712106361
416.1218152,6041938.370310864
416.9981727,6041356.232687219
417.8803987,6041735.548437117
418.7685535,6041015.740263383
419.6626985,6041600.623920964
420.5628957,6041580.1710257735
421.4692081,6041301.604211355
422.3816994,6041730.251914374
423.3004343,6041825.98386593
424.2254783,6041654.049851524
425.1568978,6041541.752194832
426.0947602,6041632.93014955
427.0391337,6041234.530418618
427.9900874,6040912.28445534
428.9476917,6041227.524150995
429.9120175,6041437.4121038485
430.8831369,6041112.503766757
431.8611232,6041516.94154468
432.8460504,6041326.331299817
433.8379937,6041414.08785928
434.8370293,6041034.917929814
435.8432345,6041250.536677124
436.8566878,6041844.63981597
437.8774686,6040968.567358477
438.9056575,6041391.7155705625
439.9413364,6041458.606681547
440.9845882,6041274.45997674
442.035497,6041700.4960727785
443.0941482,6041440.857114395
444.1606283,6041062.075718228
445.23502520000005,6041358.406753187
446.317428,6041479.373769383
447.407927,6041631.419142713
448.5066141,6041444.628894799
449.6135822,6041590.042188483
450.7289258,6041525.821092848
451.85274060000006,6041627.790456778
452.9851239,6041399.268148002
454.1261744,6041180.964863842
455.2759921,6041189.030945382
456.4346788,6041471.71207272
457.6023374,6041440.157099501
458.7790727,6041590.699362908
459.9649909,6041425.462924347
461.1601998,6041356.753711617
462.364809,6041443.269049063
463.5789295,6041811.197929718
464.8026741000001,6041370.549014772
466.0361575,6041555.205389404
467.2794956999999,6041107.944356647
468.5328070000001,6041529.416015854
469.7962111000001,6041312.233078199
471.0698299,6040839.061265221
472.3537868,6041405.791058759
473.6482074,6041271.544197334
474.9532192,6041654.218839626
476.2689517,6041360.847675017
477.5955362,6040954.057029254
478.93310639999993,6041816.945732648
480.2817979,6041188.822922925
481.6417484,6041271.718205596
483.01309800000007,6041572.994851705
484.3959889,6041280.382188374
485.7905654,6041703.486223843
487.1969743,6041337.798571512
488.6153648,6041354.271541804
490.0458884,6041499.250613999
491.488699,6041241.8110781135
492.943953,6041109.160112407
494.4118094,6041680.799428352
495.8924299,6041235.577004831
497.3859785,6041242.395874556
498.8926222,6041505.952015404
500.4125306,6041490.682868657
501.9458762,6041419.304695167
503.4928341,6041190.7207163535
505.0535827,6041421.341811557
506.628303,6041253.889693392
508.2171791999999,6041467.8828196265
509.8203986,6041558.768409845
511.4381515,6041318.016461585
513.0706316000001,6041597.117713555
514.7180356,6041333.885659416
516.3805639,6040735.511390703
518.0584200000001,6041403.660032278
519.7518110000001,6041356.008846452
521.4609475999999,6041221.400717222
523.186044,6040952.664817805
524.927318,6042124.478427373
526.6849915,6041732.352795957
528.45929,6041089.790248907
530.2504428000001,6041503.196953766
532.0586836,6041233.589785333
533.8842498,6041482.146953142
535.7273833,6041156.787077973
537.5883299,6041658.953987792
539.46734,6040929.28716068
541.3646685,6041303.269220132
543.2805745000001,6041265.113959388
545.2153222000001,6041454.318611121
547.1691801,6041163.561834812
549.1424218999999,6041328.293470223
703.1812034,6041331.510317459
704.2110782000001,6034408.143058947
705.2443688999999,6001476.751476896
706.2810885,5926489.240218572
707.3212499,5796553.722529887
708.3648661000001,5602613.269924725
709.41195,5340322.041612587
710.4625143999999,5008270.949836734
711.5165721,4607884.872153019
712.5741357,4156723.900602465
713.6352181,3699867.615380514
714.6998317000001,3275251.7292207074
715.7679891,2913561.1965372404
716.8397027999999,2638610.145425174
717.9149852,2463083.3367133485
718.9938487000001,2392333.2506083185
720.0763055,2424636.5527081685
721.162368,2544390.2984507373
722.2520481,2720876.6189036896
723.3453581,2924573.507941234
724.4423098,3130931.83119498
725.5429153,3319571.053113372
726.6471863,3477423.115269578
727.7551346,3597095.198525487
728.866772,3677540.313457483
729.9821099,3721703.684980215
731.1011599,3734003.150441658
732.2239335,3720256.9032198233
733.3504419,3685912.0449722833
734.4806963999999,3635004.723145312
735.6147081,3571533.822726118
736.7524882,3498804.204572731
737.8940474,3419158.277133293
739.0393967,3340101.289983452
740.1885467999999,3271222.9146600426
741.3415084,3227182.6808242938
742.498292,3227320.2178914286
743.658908,3287084.185999661
744.8233667999999,3408783.056766678
745.9916785,3594192.794851364
747.1638532000001,3840141.101026168
748.3399009,4138010.865734168
749.5198315,4471896.625601148
750.7036546,4816154.960030578
751.89138,5135017.870853708
753.0830171,5406252.302718901
754.2785752999999,5627369.349020484
755.4780638,5798713.242807322
756.6814917,5920140.045404918
757.8888678999999,5994846.022156414
759.1002014999999,6031277.724336399
760.3155009,6041422.540877156
761.5347749,6041456.116721397
762.7580318,6041363.412736865
763.98528,6041286.075991209
765.2165276000001,6041626.161114726
766.4517825,6041364.2464734325
767.6910527000001,6041606.193474527
768.9343458999999,6041345.548343788
770.1816697,6041270.78928163
771.4330313999999,6041344.87657087
772.6884382999999,6041528.459953505
773.9478975,6041371.111006471
775.211416,6041768.571698408
776.4790005,6041688.286063748
777.7506578,6041419.630934094
779.0263942,6041108.582573384
780.3062162,6041236.293611111
781.5901297,6041015.763583353
782.8781409,6041687.667570801
784.1702554999999,6041695.519285145
785.4664793,6041842.932652517
786.7668176,6041017.010751676
788.0712758,6041178.356482808
789.3798591,6041251.283727039
790.6925722999999,6041311.861557088
792.0094204,6041393.884977872
793.3304079,6041290.985439526
794.6555392000001,6041472.729320486
795.9848187000001,6041567.287435471
797.3182504,6041163.7793804975
798.6558382999999,6041579.083554664
799.9975861,6041014.559745517
801.3434973,6041133.152911719
802.6935752999999,6041374.299341513
804.0478232999999,6041627.707916914
805.4062443,6041267.702490067
806.7688411,6041746.7636660775
808.1356164,6041317.968144717
809.5065726,6041197.777924172
810.881712,6037544.896481733
812.2610367000001,6028394.59190735
813.6445485,6014816.900926956
815.0322493,5998248.768784817
816.4241404,5982416.504881337
817.8202233,5967149.80877832
819.2204991,5951036.45936847
820.6249687999999,5934797.686519957
822.0336331,5927062.981777205
823.4464925999999,5929779.4752374
824.8635477000001,5942045.484309628
826.2847987,5958121.960509658
827.7102456,5973461.706609474
829.1398882,5989882.647950089
830.5737261,6005201.513707697
832.0117589,6021290.13786632
833.4539857000001,6033398.097096953
834.9004057999999,6039936.180928725
836.3510179,6041890.608300451
837.8058209,6041188.413779288
839.2648132999999,6041467.879739725
840.7279934000001,6041280.521402918
842.1953594,6041140.164031638
843.6669092,6041515.730522771
845.1426408,6041428.60068933
846.6225517000001,6041310.586533397
848.1066392999999,6041520.939658328
849.5949009999999,6041297.197510527
851.0873337999999,6041161.849240896
852.5839347000001,6041478.900197905
854.0847002999999,6041287.716090117
855.5896273,6041251.319928652
857.0987119999999,6041367.33564489
858.6119507000001,6041499.11833986
860.1293393999999,6041329.139505252
861.650874,6041459.402341343
863.1765502000001,6041490.657432567
864.7063635,6041257.659023435
866.2403094,6041336.348469251
867.778383,6041149.03002128
869.3205793999999,6041839.850766764
870.8668935000001,6041288.739347925
872.4173199999999,6041183.783607182
873.9718536,6041532.002847607
875.5304886,6041386.940272795
877.0932193,6041328.881488076
878.6600399,6041058.234669288
880.2309443,6041762.417351128
881.8059264000001,6041203.312318431
883.3849798,6041418.003360568
884.9680981,6041429.322478843
886.5552747000002,6041397.31540148
888.1465029,6041060.210288429
889.7417757000001,6041264.359633659
891.3410862,6041602.531741967
892.9444273,6041232.975990633
894.5517916000001,6041555.92160339
896.1631719000001,6041299.317566822
897.7785605,6041622.802593856
899.3979498,6041630.69443692
901.0213321,6041283.673450068
902.6486995,6041479.290664049
904.280044,6041292.442164497
905.9153575,6041270.44394296
907.5546319,6041050.794765208
909.1978586,6041153.945523327
910.8450295,6041256.961517931
912.4961358,6041027.299609391
914.1511691,6041785.9786400935
915.8101205,6041537.5595049225
917.4729813,6041242.926993521
919.1397426,6041077.478600496
920.8103953,6041337.505155128
922.4849303,6041133.543975286
924.1633386,6041576.44108139
925.8456109,6041554.54729999
927.5317378,6041214.256195001
929.22171,6041894.412019456
930.9155179,6041482.448954918
932.6131521,6041583.984047699
934.3146028,6041736.247791188
936.0198606,6041440.082229637
937.7289155,6041409.849225984
939.4417579,6041478.336114589
941.1583779,6041314.983901771
942.8787656,6041395.1008411925
944.6029109,6041840.892728483
946.3308041,6041876.075752604
948.0624349,6040986.72776355
949.7977933,6041480.451556994
951.5368692,6041445.860766117
953.2796523,6041193.790342455
955.0261327,6041281.1139344815
956.7762999,6041352.118376207
958.5301437,6041402.989568533
960.2876539,6041168.233986389
962.0488201,6041106.01089034
963.813632,6041381.707818882
965.5820793,6040956.1186445085
967.3541517,6041766.752679353
969.1298386,6041809.955394045
970.9091298,6040680.684005692
972.6920149,6042111.601190719
974.4784835,6040792.893440379
976.2685251,6041733.956126005
978.0621293,6041590.435390086
979.8592859,6042133.465484602
981.6599843,6042873.602297604
983.4642142,6041213.157967523
985.2719651,6040836.4467942575
987.0832269,6040873.194806333
988.897989,6040841.138829352
990.7162412,6041645.679377751
992.5379731,6041289.37266297
994.3631745,6041552.363521826
996.191835,6031455.916302208
998.0239445,6001213.5884593325
999.8594926,5942307.909043522
1001.698469,5846733.8667527065
1003.540864,5707560.284899212
1005.386668,5522361.6056684535
1007.235869,5285556.154156412
1009.088458,4995908.391635535
1010.944426,4669098.888067725
1012.803762,4326423.245774676
1014.666456,3984820.096130318
1016.532498,3657840.0516418833
1018.401878,3356337.299297148
1020.274588,3091008.3925567083
1022.150616,2866481.986331553
1024.029953,2687686.6733198487
1025.912591,2545569.553534901
1027.798518,2433091.422565682
1029.687726,2340000.9985964247
1031.580205,2259862.4810585207
1033.475945,2183585.1058121133
1035.3749380000002,2107749.907593725
1037.277175,2028780.953520708
1039.182645,1942645.3150049704
1041.09134,1850905.153987476
1043.003251,1752263.8371960246
1044.918368,1648720.01310298
1046.836683,1541831.0127302962
1048.758188,1434952.265840348
1050.682872,1328869.946519811
1052.610728,1226942.3993354845
1054.541747,1132380.159601252
1056.4759210000002,1044806.0206476344
1058.41324,966826.7752076852
1060.353697,897870.1805388415
1062.297282,837964.6889393901
1064.243989,785584.795399283
1066.193809,741325.6278458548
1068.146734,703964.5906869301
1070.102755,670864.5047357813
1072.061865,641802.6148313585
1074.024056,615294.2940189933
1075.989321,590406.671789814
1077.957651,566059.7307356157
1079.92904,542356.2179932783
1081.9034800000002,518507.8847868306
1083.880963,493817.5933955719
1085.861482,469875.9860790502
1087.8450300000002,446496.0053174853
1089.8316,422639.9163826367
1091.821185,400769.2545503244
1093.8137789999998,379901.84814366815
1095.809373,360343.3140932901
1097.807962,341783.01874921826
1099.809539,325250.5982988232
1101.814098,310652.18691938143
1103.821631,297396.6705832861
1105.832134,285578.9999922994
1107.845599,275461.12799395283
1109.86202,266508.4243037332
1111.881392,258712.15499741075
1113.903708,251345.80207787163
1115.928963,245037.40914595497
1117.95715,238888.33559601448
1119.988266,232735.31006177596
1122.022303,226328.7901872597
1124.059256,219348.72089459345
1126.09912,212541.5018875947
1128.14189,205019.6022342709
1130.187561,197205.0203854668
1132.236128,188992.34282592204
1134.287585,180442.53598648915
1136.341929,172198.97541633062
1138.3991529999998,163901.43355782225
1140.459254,155589.14701926356
1142.522228,147631.50257439114
1144.588069,140017.6072228972
1146.6567730000002,132604.9878781259
1148.728337,125664.53389932936
1150.802756,118926.77871582856
1152.880025,112302.5863227754
1154.960142,105860.81381300966
1157.043103,99446.37039489944
1159.128903,93308.00917405692
1161.217539,87384.42086161932
1163.309007,81446.36604983735
1165.403305,75391.91808117897
1167.500429,69343.81079705039
1169.600375,63448.71508168357
1171.703141,57687.35696417806
1173.808724,51772.028966136575
1175.9171199999998,46098.354691574095
1178.028327,40262.24369235116
1180.142342,34650.68153993727
1182.2591630000002,29336.24254210216
1184.378787,24450.69686183541
1186.501211,19798.995204551684
1188.626434,15690.475154136702
1190.754453,12010.928876102496
1192.885266,8794.351837598557
1195.018872,6188.578361664267
1197.155267,4185.7302964075625
1199.294451,2657.7304899958144
1201.436421,1525.880264569768
1203.581177,804.9783857899585
1205.728716,329.32113077714746
1207.879037,73.28567018869207
1210.032139,2.5116853732356166
1212.1880199999998,-6.545044264506767
1214.34668,-0.2076672610613938
1216.508117,4.5116879438961455
1218.67233,-2.1929967754893065
1220.839319,-0.9587820112067558
1223.009083,0.4764751871373476
1225.1816210000002,-0.2515315835732376
1227.356932,-2.942075625240565
1229.535016,-6.376624288917313
1231.715873,-1.1855032370778793
1233.899503,-3.183612969376415
1236.0859039999998,0.1226917768037316
1238.275078,-0.9949809951901354
1240.467024,1.6575890370992097
