wave,flux
306.2504509,19.314959548231503
306.5604242,41.78141175172343
306.871524,61.009005459708575
307.18375710000004,91.7889918710615
307.4971302,120.50259614939591
307.8116501,163.30300907951104
308.1273236,191.99946695206836
308.4441577,230.03998097036992
308.7621594,269.6227721711668
309.0813356,311.6526910316898
309.4016935,357.573997704358
309.7232403,407.139143169932
310.04598300000004,462.6589643568048
310.369929,521.9530946374323
310.6950856,586.4853293837181
311.0214601,660.6563109198834
311.34906010000003,738.7990127451532
311.6778931,813.7938014261287
312.0079665,901.058520074187
312.33928810000003,998.4858968928688
312.6718655,1096.7217856932036
313.00570639999995,1197.3611659815383
313.3408189,1319.7415524364224
313.6772106,1428.02787512099
314.0148896,1553.055911275365
314.3538639,1672.2904968002622
314.6941415,1800.1363825838898
315.0357308,1920.6520735731851
315.37863980000003,2045.3231553142116
315.7228769,2165.113537868116
316.0684504,2280.993583152132
316.4153688,2394.810817390406
316.76364069999994,2514.134176211605
317.1132746,2624.476154885626
317.4642791,2740.848426053793
317.8166631,2865.404483662691
318.1704352,2992.8662432499573
318.5256045,3112.606861660955
318.8821799,3249.435174199569
319.2401704,3379.94621435599
319.5995851,3525.7662336439216
319.96043330000003,3659.2809125656254
320.3227243,3811.309416308052
320.6864673,3954.881618347319
321.0516719,4112.11111874891
321.4183476,4270.403571441255
321.786504,4432.650683080359
322.1561508,4602.259286131189
322.5272977,4782.9515179223135
322.8999548,4979.992430372466
323.2741319,5219.10959384899
323.649839,5489.798194444871
324.0270864,5788.4688670308615
324.40588419999995,6125.380447269878
324.7862428,6507.188164416462
325.16817260000005,6930.664333972256
325.5516841,7368.170183179791
325.9367879,7823.746334562996
326.32349480000005,8278.081710668299
326.7118154,8716.931055026722
327.1017607,9156.214160532109
327.4933418,9573.096943430985
327.88656960000003,9988.09183946794
328.2814555,10403.090371644188
328.6780106,10786.035347916204
329.0762465,11180.526603917642
329.47617460000004,11588.665297125632
329.8778065,12026.842666662324
330.281154,12469.505496314672
330.6862289,12927.863407471214
331.0930432,13420.479017756776
331.5016088,13979.146098763084
331.911938,14601.906888998305
332.32404310000004,15322.88514457088
332.7379364,16132.065704193745
333.1536305,17026.44804920012
333.571138,18047.68961468264
333.9904716,19169.698442205325
334.4116443,20394.227651501253
334.834669,21694.43076958885
335.2595588,23100.3524006496
335.686327,24569.417710092905
336.114987,26161.64256811188
336.5455522,27906.57562381184
336.9780363,29856.29098467341
337.41245310000005,32064.987869716217
337.8488164,34560.531232901514
338.28714019999995,37437.9449846902
338.7274388,40722.563976969774
339.1697264,44478.037079408976
339.6140175,48750.271935473145
340.06032660000005,53539.96853886077
340.5086685,58916.252928422575
340.959058,64888.98131534015
341.4115102,71482.8680859264
341.8660403,78739.28911723358
342.32266339999995,86686.77840642327
342.7813952,95410.10753038114
343.24225110000003,104937.39563545444
343.70524710000007,115284.687156806
344.17039889999995,126485.32648847847
344.6377228,138551.06744946755
345.1072349,151398.74417946386
345.5789517,165088.70667047895
346.0528897,179530.0691329585
346.5290657,194587.8616311329
347.0074967,210255.24749720987
347.48819960000003,226364.4663007207
347.9711917,242999.6624107587
348.45649060000005,259818.5226011321
348.9441137,276963.1735731228
349.434079,294121.4721789163
349.9264043,311307.15438475384
350.4211078,328463.3156351945
350.9182079,345332.73344589287
351.4177232,361736.3887361075
351.9196722,377334.4884487959
352.42407410000004,391931.60129905975
352.9309478,405351.80027040537
353.4403127,417111.9819125433
353.95218839999995,427088.3484343065
354.4665945,435014.5094188536
354.983551,440716.0266439404
355.503078,444211.3912241068
356.025196,445762.4838283352
356.5499253,445482.71920586686
357.077287,443785.3372389199
357.6073018,441038.71284692
358.1399912,437734.4495793221
358.6753765,434320.01694901095
359.2134795,431128.22442964494
359.754322,428579.9364250992
360.2979263,426758.1671637203
360.8443147,425810.8564595794
361.3935098,426050.54818388494
361.9455346,427368.86249609565
362.5004122,429956.6619088847
363.058166,434015.22484846594
363.61881960000005,439724.8451240153
364.1823969,447721.1143079068
364.7489221,458739.512737912
365.3184196,473358.3784841484
365.8909141,492362.91588313406
366.4664305,516288.0539412496
367.0449943,545705.4498855332
367.6266307,580512.2653485213
368.2113658,620216.912401629
368.7992255,664055.7986654771
369.3902363,710359.5107011348
369.9844249,757206.9756747496
370.5818182,802290.6235692231
371.1824436,843092.1262442024
371.7863286000001,877650.9406675107
372.3935012,903765.4336712032
373.0039896,920322.461800654
373.6178223,926807.449203126
374.2350283,923595.4382399
374.8556368,912121.2826011572
375.4796772,894725.916955244
376.1071796,874575.9495700389
376.7381741,854979.7633375202
377.3726913,839805.609779733
378.0107622,832381.5359627112
378.652418,836669.5614422327
379.2976904,855217.1090652336
379.9466115,889641.2850030483
380.5992136,941181.203406498
381.2555296,1009197.6871721172
381.9155926,1091919.060265318
382.5794362,1186520.6124296298
383.2470943,1288867.0820878483
383.9186014,1394269.2186729896
384.5939922,1497261.9781339387
385.2733019,1592383.7833727768
385.9565661,1675049.1311894509
386.6438209,1741355.6477882292
387.3351027,1789639.504009783
388.0304484,1818810.7751088552
388.7298955,1831442.9627764449
389.4334817,1830656.941543984
390.1412452,1819819.42731102
390.853225,1805859.703761799
391.56946,1794774.4625752282
392.2899901,1789812.9227196716
393.0148555,1793267.9116572074
393.7440968,1806401.536684779
394.4777551,1826508.515653366
395.2158722,1852567.242465132
395.9584903,1881823.1155251216
396.7056521,1908020.3097418477
397.457401,1927927.10426434
398.2137806,1939930.9145329224
398.9748353,1945786.482811397
399.7406101,1946608.4281816185
400.5111505,1946133.0165089543
401.2865024,1947188.7894894048
402.0667126,1952456.2002532592
402.8518283,1965686.350573876
403.6418973,1988824.3424839263
404.436968,2020632.6381887973
405.2370896,2059663.0066379844
406.0423117,2101717.4264865383
406.8526847,2143532.635167139
407.66825960000006,2181073.1584305298
408.4890879,2210498.9502692386
409.3152221,2229596.5921529382
410.1467152,2236725.457773401
410.9836208,2231162.263834792
411.8259934,2214605.0718859574
412.673888,2188811.560702736
413.5273605,2156125.9076270983
414.38646760000006,2120252.0560934995
415.2512664,2084187.2699738708
416.1218152,2050485.168663404
416.9981727,2022924.6794536985
417.8803987,2003414.317740613
418.7685535,1995223.5151042289
419.6626985,2000782.7740579068
420.5628957,2022908.067637093
421.4692081,2064301.550828568
422.3816994,2128523.73436568
423.3004343,2218399.132938804
424.2254783,2337382.82598609
425.1568978,2487274.5843424792
426.0947602,2669709.582412029
427.0391337,2883380.21195886
427.9900874,3124138.125272685
428.9476917,3385254.535037253
429.9120175,3656419.6051210207
430.8831369,3923666.397681412
431.8611232,4171624.009095661
432.8460504,4385712.423563678
433.8379937,4551309.803481157
434.8370293,4658012.261366088
435.8432345,4699965.527369305
436.8566878,4676741.848108882
437.8774686,4593949.692450344
438.9056575,4463105.980019663
439.9413364,4298114.2473495165
440.9845882,4115905.8583354736
442.035497,3931495.97702682
443.0941482,3757600.001460552
444.1606283,3606246.7396509
445.23502520000005,3483840.509324422
446.317428,3394674.805535518
447.407927,3339139.598170651
448.5066141,3317889.284548672
449.6135822,3330804.900353215
450.7289258,3378929.4865954067
451.85274060000006,3465335.0999411964
452.9851239,3595272.923145172
454.1261744,3766285.58543664
455.2759921,3973581.309932517
456.4346788,4210778.726129562
457.6023374,4470793.646363467
458.7790727,4744155.377692694
459.9649909,5017749.104974429
461.1601998,5274462.528538519
462.364809,5494481.773407281
463.5789295,5673623.439174208
464.8026741000001,5812534.261361003
466.0361575,5914351.093925175
467.2794956999999,5982957.387664655
468.5328070000001,6022119.631031423
469.7962111000001,6038649.658738687
471.0698299,6041506.48213342
472.3537868,6041205.536949496
473.6482074,6041344.610612549
474.9532192,6041142.430078789
476.2689517,6041622.40360718
477.5955362,6041153.048048672
478.93310639999993,6040737.672251413
480.2817979,6041065.600331814
481.6417484,6041724.144349883
483.01309800000007,6041341.884038352
484.3959889,6041247.36885097
485.7905654,6041290.576361824
487.1969743,6041228.004750402
488.6153648,6041454.462453734
490.0458884,6041363.7025897335
491.488699,6041730.9499006085
492.943953,6041189.998332136
494.4118094,6041344.0509967785
495.8924299,6040805.719807018
497.3859785,6041469.88084518
498.8926222,6041370.23482801
500.4125306,6041230.695560163
501.9458762,6041318.792103075
503.4928341,6041645.457371071
505.0535827,6041260.234467668
506.628303,6041047.259913825
508.2171791999999,6041350.970067542
509.8203986,6041523.308153655
511.4381515,6041839.897329195
513.0706316000001,6041899.104850364
514.7180356,6041199.241492517
516.3805639,6041040.202920544
518.0584200000001,6041254.263721582
519.7518110000001,6040916.373036077
521.4609475999999,6041974.553042848
523.186044,6041520.195348143
524.927318,6041470.8562557325
526.6849915,6041544.032616177
528.45929,6041237.390405688
530.2504428000001,6041690.646488061
532.0586836,6042059.854059617
533.8842498,6041549.456659079
535.7273833,6040961.940770829
537.5883299,6041666.861091778
539.46734,6042129.882941921
541.3646685,6041458.6147674285
543.2805745000001,6041408.106565605
545.2153222000001,6041218.69028804
547.1691801,6041235.381439143
549.1424218999999,6040819.5262849815
551.1353259,6041685.629336839
553.1481756000001,6041194.949563508
555.1812597,6041073.542957346
557.2348721,6041497.395517292
559.3093121,6041297.6654638415
561.4048845,6041724.054481857
563.5218996,6041828.241253302
565.6606737000001,6041288.528127175
567.8215287,6041522.573498976
570.0047927,6041360.109656245
572.2107997,6041606.936319003
574.4398902,6041321.269350568
576.692411,6041462.628857923
578.9687155,6040920.962128112
581.2691637,6041117.079771939
583.5941226,6041497.574513878
585.943966,6041670.403260943
588.3190752,6041446.61680928
590.7198384999999,6041171.68985712
593.1466518,6041592.163265615
595.5999188999999,6041960.810770922
598.0800512,6041230.153070987
600.5874682,6041845.406764203
603.1225977000001,6041486.418178768
605.6858758999999,6041734.067165925
608.2777476,6041455.087844301
610.8986664,6041406.851453649
613.549095,6041903.46466971
616.2295054,6040821.43764903
618.940379,6041395.413630587
621.6822068,6041851.88714628
624.4554901,6040647.074345839
627.2607402000001,6041461.088771158
630.0984786,6041128.567812143
632.9692378999999,6043214.015695843
635.8735614,6042631.3416141365
638.8120038,6041514.981427438
641.7851312999999,6040328.147796033
644.7935217999999,6040800.070935515
647.8377654,6037722.496091873
650.9184646000001,6040318.082116202
654.0362346,6041206.823413857
657.1917038,6042362.569140786
660.3855139,6040840.173259523
663.6183202999999,6038831.156082277
666.8907926,6037668.9178005885
670.2036149,6039752.8029686175
673.557486,6039136.176949835
676.9531202000001,6038279.441187946
680.3912472999999,6041139.634425873
683.8726131,6041631.322180969
687.3979803,6043447.604867922
690.9681281000001,6041271.53275822
703.1812034,6041331.510317459
704.2110782000001,6034408.143058947
705.2443688999999,6001476.751476896
706.2810885,5926489.240218572
707.3212499,5796553.722529887
708.3648661000001,5602613.269924725
709.41195,5340322.041612587
710.4625143999999,5008270.949836734
711.5165721,4607884.872153019
712.5741357,4156723.900602465
713.6352181,3699867.615380514
714.6998317000001,3275251.7292207074
715.7679891,2913561.1965372404
716.8397027999999,2638610.145425174
717.9149852,2463083.3367133485
718.9938487000001,2392333.2506083185
720.0763055,2424636.5527081685
721.162368,2544390.2984507373
722.2520481,2720876.6189036896
723.3453581,2924573.507941234
724.4423098,3130931.83119498
725.5429153,3319571.053113372
726.6471863,3477423.115269578
727.7551346,3597095.198525487
728.866772,3677540.313457483
729.9821099,3721703.684980215
731.1011599,3734003.150441658
732.2239335,3720256.9032198233
733.3504419,3685912.0449722833
734.4806963999999,3635004.723145312
735.6147081,3571533.822726118
736.7524882,3498804.204572731
737.8940474,3419158.277133293
739.0393967,3340101.289983452
740.1885467999999,3271222.9146600426
741.3415084,3227182.6808242938
742.498292,3227320.2178914286
743.658908,3287084.185999661
744.8233667999999,3408783.056766678
745.9916785,3594192.794851364
747.1638532000001,3840141.101026168
748.3399009,4138010.865734168
749.5198315,4471896.625601148
750.7036546,4816154.960030578
751.89138,5135017.870853708
753.0830171,5406252.302718901
754.2785752999999,5627369.349020484
755.4780638,5798713.242807322
756.6814917,5920140.045404918
757.8888678999999,5994846.022156414
759.1002014999999,6031277.724336399
760.3155009,6041422.540877156
761.5347749,6041456.116721397
762.7580318,6041363.412736865
763.98528,6041286.075991209
765.2165276000001,6041626.161114726
766.4517825,6041364.2464734325
767.6910527000001,6041606.193474527
768.9343458999999,6041345.548343788
770.1816697,6041270.78928163
771.4330313999999,6041344.87657087
772.6884382999999,6041528.459953505
773.9478975,6041371.111006471
775.211416,6041768.571698408
776.4790005,6041688.286063748
777.7506578,6041419.630934094
779.0263942,6041108.582573384
780.3062162,6041236.293611111
781.5901297,6041015.763583353
782.8781409,6041687.667570801
784.1702554999999,6041695.519285145
785.4664793,6041842.932652517
786.7668176,6041017.010751676
788.0712758,6041178.356482808
789.3798591,6041251.283727039
790.6925722999999,6041311.861557088
792.0094204,6041393.884977872
793.3304079,6041290.985439526
794.6555392000001,6041472.729320486
795.9848187000001,6041567.287435471
797.3182504,6041163.7793804975
798.6558382999999,6041579.083554664
799.9975861,6041014.559745517
801.3434973,6041133.152911719
802.6935752999999,6041374.299341513
804.0478232999999,6041627.707916914
805.4062443,6041267.702490067
806.7688411,6041746.7636660775
808.1356164,6041317.968144717
809.5065726,6041197.777924172
810.881712,6037544.896481733
812.2610367000001,6028394.59190735
813.6445485,6014816.900926956
815.0322493,5998248.768784817
816.4241404,5982416.504881337
817.8202233,5967149.80877832
819.2204991,5951036.45936847
820.6249687999999,5934797.686519957
822.0336331,5927062.981777205
823.4464925999999,5929779.4752374
824.8635477000001,5942045.484309628
826.2847987,5958121.960509658
827.7102456,5973461.706609474
829.1398882,5989882.647950089
830.5737261,6005201.513707697
832.0117589,6021290.13786632
833.4539857000001,6033398.097096953
834.9004057999999,6039936.180928725
836.3510179,6041890.608300451
837.8058209,6041188.413779288
839.2648132999999,6041467.879739725
840.7279934000001,6041280.521402918
842.1953594,6041140.164031638
843.6669092,6041515.730522771
845.1426408,6041428.60068933
846.6225517000001,6041310.586533397
848.1066392999999,6041520.939658328
849.5949009999999,6041297.197510527
851.0873337999999,6041161.849240896
852.5839347000001,6041478.900197905
854.0847002999999,6041287.716090117
855.5896273,6041251.319928652
857.0987119999999,6041367.33564489
858.6119507000001,6041499.11833986
860.1293393999999,6041329.139505252
861.650874,6041459.402341343
863.1765502000001,6041490.657432567
864.7063635,6041257.659023435
866.2403094,6041336.348469251
867.778383,6041149.03002128
869.3205793999999,6041839.850766764
870.8668935000001,6041288.739347925
872.4173199999999,6041183.783607182
873.9718536,6041532.002847607
875.5304886,6041386.940272795
877.0932193,6041328.881488076
878.6600399,6041058.234669288
880.2309443,6041762.417351128
881.8059264000001,6041203.312318431
883.3849798,6041418.003360568
884.9680981,6041429.322478843
886.5552747000002,6041397.31540148
888.1465029,6041060.210288429
889.7417757000001,6041264.359633659
891.3410862,6041602.531741967
892.9444273,6041232.975990633
894.5517916000001,6041555.92160339
896.1631719000001,6041299.317566822
897.7785605,6041622.802593856
899.3979498,6041630.69443692
901.0213321,6041283.673450068
902.6486995,6041479.290664049
904.280044,6041292.442164497
905.9153575,6041270.44394296
907.5546319,6041050.794765208
909.1978586,6041153.945523327
910.8450295,6041256.961517931
912.4961358,6041027.299609391
914.1511691,6041785.9786400935
915.8101205,6041537.5595049225
917.4729813,6041242.926993521
919.1397426,6041077.478600496
920.8103953,6041337.505155128
922.4849303,6041133.543975286
924.1633386,6041576.44108139
925.8456109,6041554.54729999
927.5317378,6041214.256195001
929.22171,6041894.412019456
930.9155179,6041482.448954918
932.6131521,6041583.984047699
934.3146028,6041736.247791188
936.0198606,6041440.082229637
937.7289155,6041409.849225984
939.4417579,6041478.336114589
941.1583779,6041314.983901771
942.8787656,6041395.1008411925
944.6029109,6041840.892728483
946.3308041,6041876.075752604
948.0624349,6040986.72776355
949.7977933,6041480.451556994
951.5368692,6041445.860766117
953.2796523,6041193.790342455
955.0261327,6041281.1139344815
956.7762999,6041352.118376207
958.5301437,6041402.989568533
960.2876539,6041168.233986389
962.0488201,6041106.01089034
963.813632,6041381.707818882
965.5820793,6040956.1186445085
967.3541517,6041766.752679353
969.1298386,6041809.955394045
970.9091298,6040680.684005692
972.6920149,6042111.601190719
974.4784835,6040792.893440379
976.2685251,6041733.956126005
978.0621293,6041590.435390086
979.8592859,6042133.465484602
981.6599843,6042873.602297604
983.4642142,6041213.157967523
985.2719651,6040836.4467942575
987.0832269,6040873.194806333
988.897989,6040841.138829352
990.7162412,6041645.679377751
992.5379731,6041289.37266297
994.3631745,6041552.363521826
996.191835,6031455.916302208
998.0239445,6001213.5884593325
999.8594926,5942307.909043522
1001.698469,5846733.8667527065
1003.540864,5707560.284899212
1005.386668,5522361.6056684535
1007.235869,5285556.154156412
1009.088458,4995908.391635535
1010.944426,4669098.888067725
1012.803762,4326423.245774676
1014.666456,3984820.096130318
1016.532498,3657840.0516418833
1018.401878,3356337.299297148
1020.274588,3091008.3925567083
1022.150616,2866481.986331553
1024.029953,2687686.6733198487
1025.912591,2545569.553534901
1027.798518,2433091.422565682
1029.687726,2340000.9985964247
1031.580205,2259862.4810585207
1033.475945,2183585.1058121133
1035.3749380000002,2107749.907593725
1037.277175,2028780.953520708
1039.182645,1942645.3150049704
1041.09134,1850905.153987476
1043.003251,1752263.8371960246
1044.918368,1648720.01310298
1046.836683,1541831.0127302962
1048.758188,1434952.265840348
1050.682872,1328869.946519811
1052.610728,1226942.3993354845
1054.541747,1132380.159601252
1056.4759210000002,1044806.0206476344
1058.41324,966826.7752076852
1060.353697,897870.1805388415
1062.297282,837964.6889393901
1064.243989,785584.795399283
1066.193809,741325.6278458548
1068.146734,703964.5906869301
1070.102755,670864.5047357813
1072.061865,641802.6148313585
1074.024056,615294.2940189933
1075.989321,590406.671789814
1077.957651,566059.7307356157
1079.92904,542356.2179932783
1081.9034800000002,518507.8847868306
1083.880963,493817.5933955719
1085.861482,469875.9860790502
1087.8450300000002,446496.0053174853
1089.8316,422639.9163826367
1091.821185,400769.2545503244
1093.8137789999998,379901.84814366815
1095.809373,360343.3140932901
1097.807962,341783.01874921826
1099.809539,325250.5982988232
1101.814098,310652.18691938143
1103.821631,297396.6705832861
1105.832134,285578.9999922994
1107.845599,275461.12799395283
1109.86202,266508.4243037332
1111.881392,258712.15499741075
1113.903708,251345.80207787163
1115.928963,245037.40914595497
1117.95715,238888.33559601448
1119.988266,232735.31006177596
1122.022303,226328.7901872597
1124.059256,219348.72089459345
1126.09912,212541.5018875947
