wave,flux
579.7349067000001, ,-2.0815906525167915
580.4012016, ,0.030599899386802583
581.0690204, ,54.248665969020884
581.7383737, ,115.34618871267395
582.4092722999999, ,176.34501401364747
583.0817268999999, ,243.2842630925001
583.7557482999999, ,318.50836576782774
584.4313472, ,394.5220925442391
585.1085343999999, ,472.51928442452
585.7873207, ,553.030343870032
586.4677171, ,570.6011697607689
587.1497343999999, ,589.3177367644535
587.8333835, ,606.0094670744493
588.5186752999999, ,618.1666327257839
589.2056208, ,635.9532277292436
589.8942308999999, ,649.5610606184978
590.5845168, ,663.5465516965038
591.2764894, ,681.1379351571268
591.9701597999999, ,692.4566485918327
592.665539, ,711.244198193732
593.3626383, ,724.7402236441408
594.0614688, ,738.9991384903319
594.7620416, ,747.8424294647863
595.4643679, ,758.2831402994367
596.1684591, ,778.2602348590358
596.8743264, ,793.279850751537
597.5819809999999, ,816.8526448351744
598.2914344, ,833.38439246612
599.0026978, ,845.0805243087148
599.7157827000001, ,869.3939202677669
600.4307005, ,881.6261300004536
601.1474627, ,898.2664785754961
601.8660807, ,902.7203225027388
602.5865660000001, ,915.7359665568773
603.3089302999999, ,915.6432230403783
604.0331851, ,910.7535175787466
604.7593419, ,919.0308153686098
605.4874126, ,911.2167659289172
606.2174086, ,919.1476767041482
606.9493418, ,924.7749223023868
607.6832239, ,953.4948587990456
608.4190667, ,994.2667328381726
609.1568819, ,1035.7832059851785
609.8966815, ,1100.1256112482479
610.6384772000001, ,1166.8601648978115
611.3822811000001, ,1237.1662246668914
612.128105, ,1315.9500138031622
612.8759610000001, ,1387.4210596800729
613.625861, ,1455.8915611482723
614.3778171, ,1514.1247611081103
615.1318413, ,1556.3738989476046
615.8879458, ,1588.5654469786318
616.6461426, ,1614.9937900737177
617.4064441, ,1642.413744346796
618.1688624, ,1667.990066048943
618.9334097, ,1698.0459396165168
619.7000982000001, ,1752.4876898694656
620.4689404000001, ,1801.2004190484909
621.2399486, ,1874.2662602396854
622.0131351, ,1962.518746741859
622.7885123, ,2072.0817038521595
623.5660927, ,2164.322490831983
624.3458887999999, ,2294.6092098157783
625.127913, ,2400.4397315476
625.9121779, ,2541.9861121724202
626.698696, ,2691.178016070478
627.48748, ,2877.7959859496027
628.2785426, ,3092.746889906209
629.0718962999999, ,3386.5583016009205
629.8675538, ,3748.5403285785433
630.6655279, ,4200.001019250421
631.4658314, ,4810.513587514356
632.268477, ,5559.7490481490795
633.0734776, ,6498.091033820722
633.880846, ,7632.634920221302
634.6905951, ,9025.577290376421
635.5027378999999, ,10728.375114722641
636.3172871, ,12771.010274295992
637.1342559, ,15133.922904696643
637.9536572000001, ,17903.03617693986
638.775504, ,21099.378401593487
639.5998095, ,24686.008666285008
640.4265866000001, ,28797.286664478463
641.2558486, ,33347.87578992138
642.0876085, ,38455.256825621545
642.9218795, ,44003.6864381111
643.7586747, ,50124.633974255165
644.5980075, ,56958.465228768
645.4398911000001, ,64508.82229110628
646.2843386, ,72868.02996770582
647.1313635, ,82179.67119424674
647.980979, ,92557.50163949995
648.8331985, ,104070.88000300467
649.6880352999999, ,116744.1894449142
650.5455028, ,130432.49470190695
651.4056144, ,144971.36594951374
652.2683836, ,159969.98394248175
653.1338237000001, ,175147.17725414268
654.0019482999999, ,189804.94800160907
654.8727708, ,203206.39790540293
655.7463047, ,214898.13110832663
656.6225636, ,224130.19860195226
657.501561, ,230455.1036701756
658.3833105, ,233365.42602159746
659.2678255, ,232767.67112710286
660.1551197000001, ,228809.75372065962
661.0452068, ,221649.6263211276
661.9381002, ,211842.39874379066
662.8338137000001, ,200303.75431565245
663.7323607999999, ,187565.9199345515
664.6337553, ,174576.06845970658
665.5380107000001, ,162211.87523169158
666.4451407, ,151145.80421281912
667.355159, ,141686.4798295646
668.2680793, ,134387.4807473551
669.1839152000001, ,129213.97046761276
670.1026805, ,125885.96681675676
671.0243889, ,124331.09402672641
671.949054, ,123992.57013048984
672.8766895, ,124458.03650291971
673.8073092, ,125205.4394430578
674.7409267, ,125906.75334438118
675.6775557999999, ,126431.91369023867
676.6172101, ,126626.54471069919
677.5599033, ,126370.1964192173
678.5056492000001, ,125804.85077786473
679.4544612999999, ,125195.69412641019
680.4063535, ,124766.53685811516
681.3613392999999, ,124656.14673358195
682.3194324, ,125056.78791399405
683.2806465, ,126063.33679546414
684.2449952000001, ,127837.0352462334
685.2124921, ,130248.19971486891
686.1831509, ,133323.35601386725
687.1569850999999, ,136826.7022652477
688.1340083, ,140830.90297450934
689.1142341, ,145174.57529087586
690.097676, ,149639.82038594582
691.0843474999999, ,154603.4245242253
692.0742622, ,159537.01721074153
693.0674334, ,164782.92653560932
694.0638748, ,170230.83341476682
695.0635996, ,175827.37251822525
696.0666212, ,181496.74560429688
697.0729531000001, ,187104.20374291786
698.0826086, ,192587.66263673455
699.0956008999999, ,197700.632300141
700.1119432999999, ,202238.10438978978
701.1316491, ,206135.41032348128
702.1547314, ,209140.94534578253
703.1812034, ,211076.62260872684
704.2110782000001, ,212155.05853264738
705.2443688999999, ,212104.67683719183
706.2810885, ,211069.65673844932
707.3212499, ,209360.54489060192
708.3648661000001, ,206995.99194963032
709.41195, ,204109.66494838905
710.4625143999999, ,201122.73857077557
711.5165721, ,198332.19712782567
712.5741357, ,195792.6852993496
713.6352181, ,193816.37118500046
714.6998317000001, ,192671.30104962323
715.7679891, ,192244.67446324692
716.8397027999999, ,193145.16577481566
717.9149852, ,195082.75200858887
718.9938487000001, ,198320.3242925193
720.0763055, ,202825.54177891972
721.162368, ,208571.73871604493
722.2520481, ,215438.43219093356
723.3453581, ,223622.6553983632
724.4423098, ,233070.80786370128
725.5429153, ,243514.9492965135
726.6471863, ,255027.78127119286
727.7551346, ,267484.29278134706
728.866772, ,280827.3912313101
729.9821099, ,294810.22327944357
731.1011599, ,309640.11455263523
732.2239335, ,325074.4561617222
733.3504419, ,340907.1235580546
734.4806963999999, ,357243.6622918154
735.6147081, ,373990.48761159775
736.7524882, ,390956.34400181967
737.8940474, ,407866.2018154801
739.0393967, ,425008.40615082346
740.1885467999999, ,441748.2774967087
741.3415084, ,458279.0184957536
742.498292, ,474212.67431984976
743.658908, ,489376.4580123072
744.8233667999999, ,503448.867487298
745.9916785, ,516464.6668869715
747.1638532000001, ,527810.7419896204
748.3399009, ,537600.5543188172
749.5198315, ,545301.5896684042
750.7036546, ,550948.476930744
751.89138, ,554089.9422138039
753.0830171, ,555031.7807833522
754.2785752999999, ,553324.7190611211
755.4780638, ,549288.0256800358
756.6814917, ,543096.9254149288
757.8888678999999, ,534778.3393524318
759.1002014999999, ,524755.7086328993
760.3155009, ,513838.6883649229
761.5347749, ,502133.1354415255
762.7580318, ,490363.1320220291
763.98528, ,478950.7927628618
765.2165276000001, ,468590.5828872525
766.4517825, ,459540.15785390977
767.6910527000001, ,452432.7131684141
768.9343458999999, ,447242.29388992797
770.1816697, ,444721.98967325967
771.4330313999999, ,444430.2552255406
772.6884382999999, ,446460.03939039615
773.9478975, ,450694.26746177464
775.211416, ,456909.12919609295
776.4790005, ,464646.17741332063
777.7506578, ,473541.5321469482
779.0263942, ,483838.81917863217
780.3062162, ,494549.98744516744
781.5901297, ,505815.16779538227
782.8781409, ,517486.7474188738
784.1702554999999, ,529280.1894954086
785.4664793, ,541373.3236676469
786.7668176, ,553791.5143608329
788.0712758, ,566693.1152144108
789.3798591, ,580057.5947668379
790.6925722999999, ,594108.2643028195
792.0094204, ,608813.7212832225
793.3304079, ,624778.5134517818
794.6555392000001, ,642040.6171417793
795.9848187000001, ,660057.4161609036
797.3182504, ,679358.3908301448
798.6558382999999, ,699484.0542822693
799.9975861, ,720652.6068958492
801.3434973, ,742018.3901576392
802.6935752999999, ,763702.2232211353
804.0478232999999, ,785288.6995022339
805.4062443, ,806726.6465927581
806.7688411, ,827860.486894858
808.1356164, ,847830.1370801157
809.5065726, ,866449.4008000826
810.881712, ,884028.2141146497
812.2610367000001, ,899871.2651462011
813.6445485, ,914351.8814169323
815.0322493, ,926904.3270661562
816.4241404, ,937920.716436828
817.8202233, ,947364.3415922786
819.2204991, ,955131.4281420949
820.6249687999999, ,961281.961500156
822.0336331, ,965858.6211368354
823.4464925999999, ,969381.3077254884
824.8635477000001, ,971548.8995061736
826.2847987, ,972491.8222659774
827.7102456, ,972304.7758373059
829.1398882, ,971247.2512816836
830.5737261, ,968860.1793259114
832.0117589, ,965903.3042656687
833.4539857000001, ,961683.1468551736
834.9004057999999, ,957774.3667421272
836.3510179, ,952424.4638567392
837.8058209, ,946984.2309899145
839.2648132999999, ,941003.7601815604
840.7279934000001, ,935350.0025105196
842.1953594, ,930540.3872032764
843.6669092, ,925470.5034047245
845.1426408, ,921142.1347928974
846.6225517000001, ,917882.58708698
848.1066392999999, ,915877.1676882334
849.5949009999999, ,915081.6639317244
851.0873337999999, ,915714.5325759395
852.5839347000001, ,917937.8377866378
854.0847002999999, ,922021.9433304254
855.5896273, ,927913.397637171
857.0987119999999, ,934836.2346225884
858.6119507000001, ,943547.0186652427
860.1293393999999, ,953973.7026988316
861.650874, ,964643.6355097992
863.1765502000001, ,976766.2841849794
864.7063635, ,989590.3660976341
866.2403094, ,1002694.1799792623
867.778383, ,1015852.3845770244
869.3205793999999, ,1028555.9457371564
870.8668935000001, ,1040797.4243074595
872.4173199999999, ,1051879.363925337
873.9718536, ,1062483.3335746974
875.5304886, ,1071430.4472550377
877.0932193, ,1078630.6452475265
878.6600399, ,1084183.8246137677
880.2309443, ,1088164.6543900415
881.8059264000001, ,1090201.411386682
883.3849798, ,1089807.8067662802
884.9680981, ,1087616.8226743063
886.5552747000002, ,1082784.2075544116
888.1465029, ,1075565.97908316
889.7417757000001, ,1066959.3455839332
891.3410862, ,1056272.974906452
892.9444273, ,1043001.4406780804
894.5517916000001, ,1027810.0308479449
896.1631719000001, ,1010778.94569279
897.7785605, ,991401.0008327486
899.3979498, ,970292.7498333241
901.0213321, ,946757.6431678472
902.6486994999999, ,920885.7705413386
904.280044, ,892895.1556892786
905.9153574999999, ,862103.5029763249
907.5546319, ,829410.0636644324
909.1978586000001, ,793942.9709103439
910.8450295, ,756762.0408135784
912.4961357999999, ,716928.240735337
914.1511691, ,675398.3225443314
915.8101205, ,632463.0240356572
917.4729812999999, ,588654.8381290569
919.1397426000001, ,544400.5837785457
920.8103953, ,500290.0578880446
922.4849303, ,456872.2201733496
924.1633386, ,415034.2671922518
925.8456108999999, ,374846.6799260174
927.5317377999999, ,337451.91676476673
929.2217099999999, ,302964.4576058618
930.9155178999999, ,271608.0832062573
932.6131521, ,243869.6558017484
934.3146027999999, ,219495.7985408083
936.0198606, ,198595.6316221429
937.7289155, ,181123.80460944108
939.4417579, ,166521.88052298885
941.1583778999999, ,154730.41013037277
942.8787656, ,145038.43300223054
944.6029108999999, ,137141.0777796186
946.3308041000001, ,130524.46370690645
948.0624349, ,124736.64553197572
949.7977933, ,119476.56644011436
951.5368692, ,114463.32933743086
953.2796523, ,109482.32120544482
955.0261327, ,104290.12610289137
956.7762999, ,98887.01148812292
958.5301437, ,93295.06976752446
960.2876538999999, ,87501.3713975431
962.0488201, ,81667.18422466055
963.813632, ,75952.22707826243
965.5820792999999, ,70478.1161869935
967.3541517000001, ,65247.030479875764
969.1298386, ,60414.147149528835
970.9091298000001, ,56056.630058519564
972.6920149, ,52227.6947616925
974.4784835, ,48921.64775390264
976.2685251, ,46083.8596688315
978.0621292999999, ,43628.15106975183
979.8592858999999, ,41575.238186841765
981.6599843, ,39754.098061969984
983.4642142000001, ,38108.30551413313
985.2719651000001, ,36595.410844112674
987.0832268999999, ,35146.363621367316
988.897989, ,33693.967754234625
990.7162412, ,32191.73139356535
992.5379731, ,30711.409849479263
994.3631744999999, ,29193.53404994297
996.191835, ,27695.508893479586
998.0239445000001, ,26205.568796063588
999.8594926000001, ,24787.05295311526
1001.6984689999999, ,23397.83364893625
1003.540864, ,22103.001993165995
1005.386668, ,20953.85879406587
1007.235869, ,19891.744105147285
1009.0884580000001, ,18964.29501512741
1010.944426, ,18107.90291744136
1012.8037619999999, ,17341.62692621443
1014.666456, ,16640.108797478737
1016.532498, ,16029.793197406587
1018.4018779999999, ,15429.225367519846
1020.2745880000001, ,14823.057251627366
1022.150616, ,14250.50393339546
1024.029953, ,13657.278375069242
1025.912591, ,13075.019013718784
1027.798518, ,12490.637508948203
1029.6877259999999, ,11930.347421388335
1031.580205, ,11386.9390160716
1033.475945, ,10835.177095126272
1035.3749380000002, ,10297.7292790498
1037.277175, ,9797.508750500141
1039.1826449999999, ,9332.406074472996
1041.09134, ,8878.042271833565
1043.003251, ,8438.997055213902
1044.9183679999999, ,8000.368194406518
1046.836683, ,7602.898914234496
1048.758188, ,7212.82305846387
1050.682872, ,6839.438132852906
1052.6107279999999, ,6437.342677698349
1054.541747, ,6091.2846972311
1056.4759210000002, ,5720.323016042165
1058.41324, ,5374.889566752095
1060.353697, ,5040.712313625107
1062.297282, ,4728.5330337808555
1064.243989, ,4388.378499499962
1066.1938089999999, ,4091.5717655659837
1068.146734, ,3781.215896985695
1070.1027550000001, ,3516.764275597014
1072.0618650000001, ,3246.409410225816
1074.024056, ,2992.2246593769555
1075.989321, ,2737.814700558801
1077.957651, ,2502.6670743540085
1079.92904, ,2267.991635789464
1081.9034800000002, ,2042.9903396457046
1083.880963, ,1818.0164681396584
1085.861482, ,1605.0612205895095
1087.8450300000002, ,1393.5086020864005
1089.8316, ,1192.3945181753736
1091.821185, ,1001.4475592636937
1093.8137789999998, ,828.3952323459627
1095.809373, ,665.1412862512759
1097.8079619999999, ,517.3923940259659
1099.809539, ,387.7670567297722
1101.814098, ,280.90480327699447
1103.821631, ,200.2064697530453
1105.832134, ,132.01227694634917
1107.845599, ,87.13804124495006
1109.86202, ,50.51825148959254
1111.881392, ,26.59738543198987
1113.903708, ,16.145598565335447
1115.928963, ,5.893906200403541
1117.95715, ,6.365865325459512
1119.988266, ,-0.7364021140849791
1122.022303, ,-0.5774863532006969
1124.059256, ,-3.0810355946902064
1126.0991199999999, ,-1.773568604564201
1128.14189, ,-0.7328617506229624
1130.187561, ,2.40721201722342
1132.236128, ,1.198156076356135
1134.287585, ,1.945866381077435
1136.341929, ,1.5588751663374774
1138.3991529999998, ,0.89931444121781
1140.4592539999999, ,-1.1595000571991811
1142.522228, ,-1.587646804372665
1144.588069, ,1.2434966797344251
1146.6567730000002, ,0.7657590217837622
1148.728337, ,-2.568881947026628
1150.802756, ,-3.2693137059069888
1152.880025, ,1.243570971183952
1154.960142, ,1.5345618590723182
1157.043103, ,5.975892830740517
1159.128903, ,-0.4713304256281173
1161.217539, ,-0.6465152328989998
1163.309007, ,2.3914653227666602
1165.403305, ,-0.5186999673754041
1167.500429, ,0.6051814468973199
1169.600375, ,-1.0917908464550732
1171.703141, ,0.30638702496782344
1173.808724, ,2.1286236880422846
1175.9171199999998, ,0.10679406345727666
1178.028327, ,1.2664544178830572
1180.142342, ,-3.7818685062708393
1182.2591630000002, ,0.7627302879000696
1184.3787869999999, ,0.7840668672364701
1186.501211, ,2.4947129149116183
1188.626434, ,-1.5774606612677806
1190.754453, ,-2.5632976577634388
1192.885266, ,1.8039077220911248
1195.018872, ,2.569784162886768
1197.155267, ,3.892562686224588
1199.294451, ,-2.2395277465072985
1201.436421, ,-1.5875251890464974
1203.581177, ,0.32675270851646776
1205.728716, ,4.2882594896166815
1207.879037, ,-1.225939470995374
1210.0321390000001, ,-4.948777076732034
1212.1880199999998, ,1.6014399700295023
1214.34668, ,0.3761542418876609
1216.508117, ,-0.1710554175936562
1218.67233, ,-1.4887320571738216
1220.839319, ,0.5311455178933754
1223.009083, ,-2.2488186208834176
1225.1816210000002, ,-2.799400756882892
1227.3569320000001, ,0.134682759566261
1229.535016, ,-0.13814717678135305
1231.715873, ,2.055054072674952
1233.8995029999999, ,-1.9955746122586917
1236.0859039999998, ,1.6557898635865742
1238.275078, ,-3.5733766260528266
1240.467024, ,0.7409705633235323
1242.6617410000001, ,0.5783600430663641
