wave,flux
579.7349067000001, ,23.415119726777764
580.4012016, ,7.368814432031785
581.0690204, ,450.52241650037706
581.7383737, ,938.6937250357812
582.4092722999999, ,1456.2960214921507
583.0817268999999, ,2021.3423480153706
583.7557482999999, ,2626.503344098042
584.4313472, ,3270.89203802895
585.1085343999999, ,3966.940025642381
585.7873207, ,4689.3539881910165
586.4677171, ,4854.335532244706
587.1497343999999, ,5015.443534696108
587.8333835, ,5184.81020346287
588.5186752999999, ,5342.395576914416
589.2056208, ,5505.2553344328635
589.8942308999999, ,5660.775947304939
590.5845168, ,5805.994286896654
591.2764894, ,5954.506566589968
591.9701597999999, ,6088.794054264301
592.665539, ,6209.936505723647
593.3626383, ,6337.223054015515
594.0614688, ,6457.602086847794
594.7620416, ,6564.182204071285
595.4643679, ,6689.9531515658655
596.1684591, ,6808.848681220598
596.8743264, ,6955.609335401303
597.5819809999999, ,7104.98609556117
598.2914344, ,7269.758584031145
599.0026978, ,7459.15265626136
599.7157827000001, ,7664.359873899949
600.4307005, ,7891.259442275426
601.1474627, ,8103.215043174409
601.8660807, ,8343.503382284129
602.5865660000001, ,8573.975566555113
603.3089302999999, ,8816.898192684923
604.0331851, ,9054.84542839927
604.7593419, ,9289.473040379875
605.4874126, ,9528.934431497464
606.2174086, ,9777.754175643813
606.9493418, ,10048.515430228763
607.6832239, ,10328.165340625586
608.4190667, ,10648.785686124576
609.1568819, ,10998.652964787329
609.8966815, ,11375.474053782407
610.6384772000001, ,11766.960153940216
611.3822811000001, ,12190.275541782548
612.128105, ,12631.101807507801
612.8759610000001, ,13079.899853342327
613.625861, ,13551.172260358213
614.3778171, ,14004.460198826268
615.1318413, ,14462.49481170876
615.8879458, ,14959.826992331002
616.6461426, ,15478.53155504318
617.4064441, ,16046.351605348873
618.1688624, ,16671.79514949549
618.9334097, ,17361.4793616479
619.7000982000001, ,18152.417955667657
620.4689404000001, ,19012.692283846045
621.2399486, ,19934.14148763668
622.0131351, ,20970.372077808082
622.7885123, ,22095.425379209057
623.5660927, ,23304.443883859018
624.3458887999999, ,24590.745561328644
625.127913, ,26002.79977828026
625.9121779, ,27536.321497658468
626.698696, ,29232.01337035241
627.48748, ,31283.561167557218
628.2785426, ,33772.481793138286
629.0718962999999, ,36832.58589345721
629.8675538, ,40782.02129648154
630.6655279, ,45922.42691659812
631.4658314, ,52698.117041424084
632.268477, ,61535.316629092675
633.0734776, ,73104.97735080204
633.880846, ,87922.11306652782
634.6905951, ,106728.83104309092
635.5027378999999, ,130145.21859164664
636.3172871, ,158867.67830909946
637.1342559, ,193221.68938678165
637.9536572000001, ,233653.6390934288
638.775504, ,280353.4550849721
639.5998095, ,333024.3155487696
640.4265866000001, ,391375.5289483616
641.2558486, ,454727.6013889442
642.0876085, ,522328.0418185789
642.9218795, ,592884.8400113317
643.7586747, ,665504.4264277174
644.5980075, ,738860.8124061871
645.4398911000001, ,811484.645568833
646.2843386, ,882812.3504770837
647.1313635, ,951746.998586903
647.980979, ,1017771.8717764063
648.8331985, ,1080482.1170141594
649.6880352999999, ,1139679.976500257
650.5455028, ,1195240.3163035614
651.4056144, ,1247217.147079256
652.2683836, ,1295660.734323793
653.1338237000001, ,1340194.1594478032
654.0019482999999, ,1380840.982324703
654.8727708, ,1417189.89828382
655.7463047, ,1448387.2681633078
656.6225636, ,1474258.77758169
657.501561, ,1493799.75999936
658.3833105, ,1506883.9917183958
659.2678255, ,1513055.7930764512
660.1551197000001, ,1512321.0299686682
661.0452068, ,1505252.9453381256
661.9381002, ,1492448.8926829202
662.8338137000001, ,1475075.20443591
663.7323607999999, ,1454623.2443818275
664.6337553, ,1432629.849848445
665.5380107000001, ,1410327.8702068753
666.4451407, ,1389611.03772204
667.355159, ,1371479.2966420671
668.2680793, ,1356877.3893445416
669.1839152000001, ,1346136.1142773523
670.1026805, ,1339688.6754265479
671.0243889, ,1337247.2682905032
671.949054, ,1338375.3785392828
672.8766895, ,1342521.1711173998
673.8073092, ,1349116.3752263782
674.7409267, ,1357894.8577417564
675.6775557999999, ,1368139.6486245953
676.6172101, ,1379895.9458645543
677.5599033, ,1393057.5210915487
678.5056492000001, ,1407440.3989094212
679.4544612999999, ,1423836.4878881725
680.4063535, ,1441988.5189045426
681.3613392999999, ,1462330.834091129
682.3194324, ,1485233.5922172791
683.2806465, ,1510865.4308898598
684.2449952000001, ,1538969.5029849096
685.2124921, ,1570106.5377049802
686.1831509, ,1604185.7744650173
687.1569850999999, ,1640894.4852847566
688.1340083, ,1680719.2154039647
689.1142341, ,1723278.9433431355
690.097676, ,1768817.3358699202
691.0843474999999, ,1817123.113476015
692.0742622, ,1867581.9049554574
693.0674334, ,1920601.377629854
694.0638748, ,1974927.1325804263
695.0635996, ,2029906.572595652
696.0666212, ,2084070.453953863
697.0729531000001, ,2136340.091200267
698.0826086, ,2185145.765304829
699.0956008999999, ,2228403.8139157617
700.1119432999999, ,2265124.4171305173
701.1316491, ,2293333.3525227285
702.1547314, ,2312002.9879297256
703.1812034, ,2321021.80893283
704.2110782000001, ,2319924.5278185336
705.2443688999999, ,2308772.480766626
706.2810885, ,2289321.147325713
707.3212499, ,2262682.4263617373
708.3648661000001, ,2230539.452573563
709.41195, ,2195481.1647147145
710.4625143999999, ,2160094.731284208
711.5165721, ,2126360.316131434
712.5741357, ,2096951.221195242
713.6352181, ,2073811.1899976025
714.6998317000001, ,2059269.4575943402
715.7679891, ,2053996.7621394272
716.8397027999999, ,2059864.5119309847
717.9149852, ,2077151.1479812427
718.9938487000001, ,2106162.374063764
720.0763055, ,2146804.327157706
721.162368, ,2199249.3957115053
722.2520481, ,2262296.198614261
723.3453581, ,2335192.293805326
724.4423098, ,2417127.1026379718
725.5429153, ,2507247.3382250373
726.6471863, ,2604677.790892843
727.7551346, ,2708277.2511334675
728.866772, ,2816839.355128084
729.9821099, ,2929736.8655064967
731.1011599, ,3045779.9746046737
732.2239335, ,3164015.77583428
733.3504419, ,3283823.4550089114
734.4806963999999, ,3404545.885988173
735.6147081, ,3524764.159645847
736.7524882, ,3643816.908668874
737.8940474, ,3761415.977959365
739.0393967, ,3876830.065837817
740.1885467999999, ,3988072.6122594764
741.3415084, ,4094954.1589550455
742.498292, ,4195892.195580939
743.658908, ,4289892.8841579305
744.8233667999999, ,4375803.504341224
745.9916785, ,4451809.978327759
747.1638532000001, ,4516218.328957267
748.3399009, ,4568432.878486609
749.5198315, ,4606813.973790869
750.7036546, ,4630064.5228481535
751.89138, ,4637203.758073257
753.0830171, ,4628392.419220797
754.2785752999999, ,4603779.5467189215
755.4780638, ,4564085.898820208
756.6814917, ,4511080.264383653
757.8888678999999, ,4446623.627146799
759.1002014999999, ,4374175.755468018
760.3155009, ,4296797.499871237
761.5347749, ,4218237.783029791
762.7580318, ,4142512.2024879805
763.98528, ,4073608.118344128
765.2165276000001, ,4014677.781927845
766.4517825, ,3969004.1244288427
767.6910527000001, ,3939222.8998083775
768.9343458999999, ,3926929.8312587123
770.1816697, ,3932239.74131504
771.4330313999999, ,3954420.3345071613
772.6884382999999, ,3992885.5270870687
773.9478975, ,4044802.3221493433
775.211416, ,4108257.203356477
776.4790005, ,4179112.8705877424
777.7506578, ,4256052.302929056
779.0263942, ,4334761.761068095
780.3062162, ,4413788.639629075
781.5901297, ,4491176.244481863
782.8781409, ,4564851.469651692
784.1702554999999, ,4634668.016309835
785.4664793, ,4701353.925108113
786.7668176, ,4765008.340852513
788.0712758, ,4827357.73749799
789.3798591, ,4889219.8413309185
790.6925722999999, ,4952043.313746272
792.0094204, ,5017662.397437164
793.3304079, ,5086568.969889224
794.6555392000001, ,5159446.147456816
795.9848187000001, ,5236733.9252696885
797.3182504, ,5318412.5898197945
798.6558382999999, ,5402550.444551712
799.9975861, ,5488701.959367322
801.3434973, ,5573855.763371268
802.6935752999999, ,5656157.675345467
804.0478232999999, ,5732743.6064529065
805.4062443, ,5803045.806203509
806.7688411, ,5864193.526648467
808.1356164, ,5916121.555940603
809.5065726, ,5957247.980595402
810.881712, ,5988231.401743747
812.2610367000001, ,6009475.4049749235
813.6445485, ,6024884.50595113
815.0322493, ,6034225.151697996
816.4241404, ,6038842.291272655
817.8202233, ,6040881.95183449
819.2204991, ,6041664.597986093
820.6249687999999, ,6041293.106707348
822.0336331, ,6041174.558523104
823.4464925999999, ,6041747.156088953
824.8635477000001, ,6041193.626910573
826.2847987, ,6041863.840170872
827.7102456, ,6041570.706254036
829.1398882, ,6041505.606294794
830.5737261, ,6041669.312569281
832.0117589, ,6041246.247836753
833.4539857000001, ,6041699.780505911
834.9004057999999, ,6041542.998691285
836.3510179, ,6041804.626525043
837.8058209, ,6041449.315277121
839.2648132999999, ,6041003.577795722
840.7279934000001, ,6041528.6609105375
842.1953594, ,6041301.058774248
843.6669092, ,6041760.181056784
845.1426408, ,6041377.849460425
846.6225517000001, ,6041606.5773635525
848.1066392999999, ,6041300.049800618
849.5949009999999, ,6041677.761003631
851.0873337999999, ,6041388.418593266
852.5839347000001, ,6041040.8693195935
854.0847002999999, ,6041609.631755147
855.5896273, ,6041651.8397069685
857.0987119999999, ,6041442.78787783
858.6119507000001, ,6041205.0054168515
860.1293393999999, ,6041248.330512897
861.650874, ,6041278.748751754
863.1765502000001, ,6041320.861551885
864.7063635, ,6041028.65860157
866.2403094, ,6040949.080432584
867.778383, ,6041332.446319157
869.3205793999999, ,6041631.252600469
870.8668935000001, ,6041196.434498712
872.4173199999999, ,6041567.086555222
873.9718536, ,6041641.178443664
875.5304886, ,6041776.051005064
877.0932193, ,6041676.521328409
878.6600399, ,6041094.731801762
880.2309443, ,6040976.183590178
881.8059264000001, ,6038616.808655559
883.3849798, ,6033878.357693368
884.9680981, ,6022811.559814268
886.5552747000002, ,6004437.529321818
888.1465029, ,5976347.868951108
889.7417757000001, ,5936261.893315916
891.3410862, ,5880864.8012861125
892.9444273, ,5808866.715886505
894.5517916000001, ,5718320.1719621075
896.1631719000001, ,5612470.778725946
897.7785605, ,5489779.865978475
899.3979498, ,5350957.6702353
901.0213321, ,5198302.439354925
902.6486994999999, ,5030673.679473486
904.280044, ,4851486.0677643735
905.9153574999999, ,4660734.297366394
907.5546319, ,4459498.87248148
909.1978586000001, ,4248270.3414865285
910.8450295, ,4027773.048852357
912.4961357999999, ,3800010.3778458345
914.1511691, ,3566195.482125205
915.8101205, ,3328408.014741913
917.4729812999999, ,3089191.2456572438
919.1397426000001, ,2850625.7681354783
920.8103953, ,2616255.3399136025
922.4849303, ,2388849.0334645417
924.1633386, ,2170806.302708535
925.8456108999999, ,1964754.6143189669
927.5317377999999, ,1773412.9760061537
929.2217099999999, ,1598083.583576614
930.9155178999999, ,1439836.175816029
932.6131521, ,1299758.0312963834
934.3146027999999, ,1177467.085044703
936.0198606, ,1072644.9850690276
937.7289155, ,984069.4406230809
939.4417579, ,910116.8291971837
941.1583778999999, ,848397.2454721809
942.8787656, ,797473.34085461
944.6029108999999, ,754435.4263364131
946.3308041000001, ,717793.4723326645
948.0624349, ,685091.7248297349
949.7977933, ,654583.655961614
951.5368692, ,625157.8116527208
953.2796523, ,595985.6443482436
955.0261327, ,566267.2238298304
956.7762999, ,535752.7034572008
958.5301437, ,504579.04275974963
960.2876538999999, ,473216.2569355309
962.0488201, ,441953.7481795349
963.813632, ,411450.2023757789
965.5820792999999, ,382417.2341331045
967.3541517000001, ,355213.21832101396
969.1298386, ,330252.59708013764
970.9091298000001, ,307868.04121775634
972.6920149, ,288007.6572480825
974.4784835, ,270690.61188625504
976.2685251, ,255695.85609071926
978.0621292999999, ,242722.036295559
979.8592858999999, ,231394.20261391296
981.6599843, ,221305.83527906335
983.4642142000001, ,212006.61522103281
985.2719651000001, ,203310.18561246552
987.0832268999999, ,194830.36066692413
988.897989, ,186524.24983870247
990.7162412, ,178129.97310102906
992.5379731, ,169707.85529594278
994.3631744999999, ,161321.24108739206
996.191835, ,152968.77013582454
998.0239445000001, ,144865.248801955
999.8594926000001, ,137059.717768851
1001.6984689999999, ,129652.03042509587
1003.540864, ,122815.56127614118
1005.386668, ,116464.75899416114
1007.235869, ,110683.45170166007
1009.0884580000001, ,105453.96747980936
1010.944426, ,100694.95151255182
1012.8037619999999, ,96357.28081725624
1014.666456, ,92399.06359342717
1016.532498, ,88651.06532029578
1018.4018779999999, ,85024.76178937247
1020.2745880000001, ,81600.63144620713
1022.150616, ,78145.65867555304
1024.029953, ,74775.08613733598
1025.912591, ,71409.82449980734
1027.798518, ,68071.69396199226
1029.6877259999999, ,64838.72080133383
1031.580205, ,61656.28845493755
1033.475945, ,58548.74008161287
1035.3749380000002, ,55599.514595175344
1037.277175, ,52798.51399287869
1039.1826449999999, ,50098.155954115544
1041.09134, ,47550.2370166717
1043.003251, ,45055.42885564697
1044.9183679999999, ,42708.50050726871
1046.836683, ,40436.058145811454
1048.758188, ,38265.56825703
1050.682872, ,36128.61414708813
1052.6107279999999, ,34059.74615514534
1054.541747, ,32050.949137204072
1056.4759210000002, ,30096.51896727518
1058.41324, ,28185.681740408563
1060.353697, ,26361.30864667358
1062.297282, ,24596.80334798005
1064.243989, ,22855.124775616805
1066.1938089999999, ,21219.51595118919
1068.146734, ,19603.889444950502
1070.1027550000001, ,18067.644311126816
1072.0618650000001, ,16613.59490219445
1074.024056, ,15205.310803972405
1075.989321, ,13845.811429295896
1077.957651, ,12556.980273972236
1079.92904, ,11293.54372210632
1081.9034800000002, ,10109.743456969198
1083.880963, ,8971.394079154095
1085.861482, ,7857.325401330624
1087.8450300000002, ,6786.639828664364
1089.8316, ,5785.2699296251
1091.821185, ,4829.9808120605485
1093.8137789999998, ,3943.607300928307
1095.809373, ,3151.2718136926273
1097.8079619999999, ,2436.5283624468425
1099.809539, ,1834.1815246649355
1101.814098, ,1328.1616950895516
1103.821631, ,920.227140898409
1105.832134, ,612.3300960874992
1107.845599, ,385.66880552297755
1109.86202, ,225.35853650312032
1111.881392, ,127.65126392857681
1113.903708, ,64.2111656676802
1115.928963, ,24.75484876364642
1117.95715, ,9.885713247177677
1119.988266, ,8.077742907129283
1122.022303, ,0.868849005604384
1124.059256, ,-2.727045896015873
1126.0991199999999, ,1.6577092402925162
1128.14189, ,2.873559635782206
1130.187561, ,-2.350027160427861
1132.236128, ,0.9768596074205841
1134.287585, ,-2.766436353995869
1136.341929, ,-0.42890039090125787
1138.3991529999998, ,-1.9178032470596682
1140.4592539999999, ,-0.2823937746099024
1142.522228, ,0.72722111948111
1144.588069, ,-0.10862397113627588
1146.6567730000002, ,1.3286089357471786
1148.728337, ,-1.8824562579067996
1150.802756, ,-1.2040988990165706
1152.880025, ,-1.1510492852900305
1154.960142, ,0.4782779110601423
1157.043103, ,4.007033664443883
1159.128903, ,1.0980108898938978
1161.217539, ,-0.3686246147265213
1163.309007, ,0.07962008075092547
1165.403305, ,0.35849469622121416
1167.500429, ,-0.4947728377660033
1169.600375, ,-4.064575180703609
1171.703141, ,-1.9469374026680402
1173.808724, ,0.4418249684605969
1175.9171199999998, ,-0.3246946714194836
1178.028327, ,0.22386764742706364
1180.142342, ,-3.1071629556871714
1182.2591630000002, ,2.1753797522639853
1184.3787869999999, ,-3.38194178915516
1186.501211, ,-0.0023884097094864077
1188.626434, ,-0.7187981087217076
1190.754453, ,1.4610660508453808
1192.885266, ,4.4399084553919534
1195.018872, ,-2.9563105841167485
1197.155267, ,4.7069077377200585
1199.294451, ,-1.6621747057120582
1201.436421, ,3.5402513119686096
1203.581177, ,1.4388626479438669
1205.728716, ,-0.8142440867890541
1207.879037, ,-2.2354715667287746
1210.0321390000001, ,-0.6608333626565184
1212.1880199999998, ,0.7627333526819499
1214.34668, ,-2.5997700231850054
1216.508117, ,1.0693377836646536
1218.67233, ,0.3562487752028631
1220.839319, ,0.4069167533321708
1223.009083, ,-1.8086782667281147
1225.1816210000002, ,2.3589138655822404
1227.3569320000001, ,-2.397302404722918
1229.535016, ,-1.1920781111235739
1231.715873, ,4.465397966155137
1233.8995029999999, ,-2.4525479687841814
1236.0859039999998, ,1.87132873922214
1238.275078, ,1.1693725731931126
1240.467024, ,1.010554463284003
1242.6617410000001, ,-0.2990738069671816
