wave,flux
1817.164934,1.9811712148921659
1790.1022050000001,-4.190941437870887
1763.812741,9.502225909905006
1738.2646949999998,49.26706995649632
1713.427949,486.317685524691
1689.273995,1488.3886481184595
1665.7758310000002,3143.78375036067
1642.907862,5385.319997887231
1620.64581,8246.23173353302
1598.9666300000001,11693.99653142954
1577.8484310000001,15732.95743918517
1557.270407,20313.62067516832
1537.212767,24837.40378910371
1517.65668,28922.567582095133
1498.5842089999999,32570.498221611164
1479.978265,35743.201204664336
1461.822555,38504.421891853635
1444.101535,40824.32473161009
1426.800368,42665.48487456948
1409.904887,44134.755386834295
1393.401553,45369.03830567519
1377.2774220000001,46620.96472475734
1361.520115,47762.92802819613
1346.117782,48968.017287570394
1331.059081,50093.06906453512
1316.3331449999998,51199.40546791472
1301.92956,52262.58305898561
1287.838342,53310.88927578842
1274.049912,54309.92137117372
1260.5550779999999,55341.875302250744
1247.345017,56386.69505721109
1234.4112519999999,57454.73383919607
1221.74564,58519.81744286273
1209.340352,59654.77322125304
1197.187859,60739.65585359502
1185.28092,61958.55265721165
1173.612564,63292.867894638155
1162.1760800000002,64684.02560473256
1150.9650060000001,66090.41671896909
1139.973115,67609.39196321262
1129.194406,69136.12659736628
1118.623093,70821.12661311655
1108.253594,72547.84696278574
1098.0805269999998,74203.5911477546
1088.098695,75835.19744816933
1078.303081,77630.48007951624
1068.688841,79579.72825788714
1059.251295,81956.65410996592
1049.9859199999999,84742.28568624053
1040.8883449999998,88051.48491920136
1031.9543429999999,92053.66384396948
1023.1798259999999,96801.14718450613
1014.5608390000001,102091.98211049377
1006.0935529999999,108007.85232956927
997.774265,114386.67839541569
989.5993858999999,120899.1588995954
981.5654412999999,127450.31462147365
973.6690651,133674.11202341152
965.9069952,139622.91409546847
958.2760697000001,144980.38323400347
950.7732231000001,149436.993697962
943.3954827,153331.31360219538
936.1399648,156418.85621355465
929.0038716,158674.23125378127
921.9844879000001,160409.37633067902
915.0791782,161953.2879999642
908.2853836000002,163472.01585317653
901.6006193,165166.43888866773
895.0224714,167878.78876478586
888.548595,171328.92447890656
882.1767113,176284.59301371578
875.9046055,183025.17839954712
869.7301242999998,191762.2072030856
863.6511742999999,202700.41812860177
857.6657193,217624.12284742433
851.7717787,237176.53398672718
845.9674256000001,262957.60972725786
840.2507849,294916.13698834344
834.6200316000001,335152.8656031627
829.0733892000001,382437.9022363222
823.6091279,435053.9595008681
818.2255633999999,495449.94713534607
812.9210552000001,559661.8424613216
807.694005,624863.3599566894
802.5428559,687996.9236665978
797.4660904,751213.860952977
792.4622299,813673.484971554
787.5298327,881022.3131069394
782.6674933999999,956828.1014880704
777.8738417999999,1047240.0862672112
773.1475413,1161915.5077126
768.4872882999999,1302709.3435205352
763.8918112000001,1483860.4705444528
759.3598692,1699743.5233163128
754.8902515999999,1952027.288480601
750.4817767999999,2232272.919128594
746.1332914,2529893.4627189883
741.8436694000001,2830492.8909934214
737.6118116,3120383.3070114492
733.4366444,3387869.7711473075
729.3171195,3631470.7846893664
725.2522127999999,3853066.5960112205
721.2409241,4063370.057959397
717.282276,4259655.446143465
713.3753136,4449263.1114131715
709.5191037000001,4642139.694376572
705.7127343,4837253.374448958
701.9553139,5052337.514935069
698.2459709,5264499.990173038
694.5838534,5459977.307419233
690.9681281000001,5626092.3789596185
687.3979803,5765880.621024315
683.8726131,5872619.696151056
680.3912472999999,5956970.961407132
676.9531202000001,6008468.122491618
673.557486,6037628.328320061
670.2036149,6041938.592643851
666.8907926,6041138.881348607
663.6183202999999,6041770.235227016
660.3855139,6041457.411298634
657.1917038,6041688.9966842
654.0362346,6043962.889383595
650.9184646000001,6041164.927483263
647.8377654,6043443.82079439
644.7935217999999,6041360.788261567
641.7851312999999,6040140.870072938
638.8120038,6040765.4653647235
635.8735614,6042538.935960598
632.9692378999999,6041293.644020396
630.0984786,6041264.617709167
627.2607402000001,6043531.322747359
624.4554901,6042367.074903147
621.6822068,6041009.33386135
618.940379,6041307.638534027
616.2295054,6041962.622427575
613.549095,6041251.315191877
610.8986664,6041656.880223594
608.2777476,6041730.645506573
605.6858758999999,6041686.43994821
603.1225977000001,6041491.943814551
600.5874682,6041323.408937299
598.0800512,6041579.298226828
595.5999188999999,6041709.410960028
593.1466518,6041644.333301242
590.7198384999999,6041429.691096784
588.3190752,6041372.911716877
585.943966,6041663.340932211
583.5941226,6041529.094846863
581.2691637,6041684.05613704
578.9687155,6041416.186147985
576.692411,6041733.186838953
574.4398902,6041617.009403452
572.2107997,6041525.509115576
570.0047927,6041386.48013882
567.8215287,6041464.735042691
565.6606737000001,6041499.443128873
563.5218996,6041752.701612794
561.4048845,6041199.337129185
559.3093121,6041541.563462305
557.2348721,6041531.6240462875
555.1812597,6041251.024019335
553.1481756000001,6041547.057623252
551.1353259,6041550.39189597
549.1424218999999,6041697.885939122
547.1691801,6041508.484702919
545.2153222000001,6041576.291561319
543.2805745000001,6041374.499242395
541.3646685,6041428.3792025875
539.46734,6041719.09937413
537.5883299,6041537.121901818
535.7273833,6041602.92955446
533.8842498,6041304.761583323
532.0586836,6041798.7774483375
530.2504428000001,6041925.968240215
528.45929,6041581.809525771
526.6849915,6041590.341032815
524.927318,6041681.660979938
523.186044,6041322.481035409
521.4609475999999,6041286.069294424
519.7518110000001,6041450.281268467
518.0584200000001,6041212.573518064
516.3805639,6041728.913610007
514.7180356,6041609.943707984
513.0706316000001,6041443.716059757
511.43815149999995,6041330.6082778415
509.82039860000003,6041944.940769708
508.2171791999999,6040970.044712327
506.628303,6041274.457182888
505.05358269999994,6041033.509753048
503.4928341,6041233.999719809
501.9458762,6041117.486462619
500.41253059999997,6041537.958198065
498.8926222,6041288.3400297975
497.3859785,6041314.471813085
495.89242989999997,6041603.354270715
494.4118094,6041211.303094796
492.943953,6041477.884615849
491.488699,6041146.964615253
490.04588839999997,6041580.590239038
488.6153648,6041737.881924925
487.19697429999997,6041292.249981973
485.7905654,6041332.798808138
484.39598889999996,6041044.978492153
483.01309800000007,6041483.4876668835
481.64174840000004,6041538.413020339
480.28179789999996,6041267.969366859
478.93310639999993,6040979.453902716
477.59553619999997,6041614.092035866
476.2689517,6041443.16502229
474.9532192,6041093.511349281
473.6482074,6041586.58356802
472.35378679999997,6041304.336192309
471.06982989999995,6041506.336335598
469.79621110000005,6041411.37027696
468.53280700000005,6033885.165000688
467.2794956999999,6013048.560346609
466.0361575,5972757.821132576
464.80267410000005,5908877.295398576
463.5789295,5818022.1202580575
462.364809,5698015.156183829
461.1601998,5546089.148206355
459.9649909,5360870.73602057
458.7790727,5155315.817450098
457.6023374,4941604.166365527
456.4346788,4728338.437205185
455.2759921,4524663.723177357
454.12617439999997,4337660.49247913
452.9851239,4171983.018037036
451.85274060000006,4033978.6524109673
450.7289258,3928022.186967015
449.6135822,3852134.433187062
448.5066141,3804892.4778944524
447.407927,3785944.052231321
446.317428,3795838.646610828
445.23502520000005,3834440.3632384664
444.1606283,3900305.778518875
443.0941482,3991049.3804866527
442.03549699999996,4101731.453400635
440.9845882,4223541.588577717
439.9413364,4346889.0302375285
438.9056575,4460318.760793113
437.87746860000004,4551212.3174735885
436.85668780000003,4607989.657558687
435.8432345,4623550.875576425
434.83702930000004,4591247.804844205
433.83799369999997,4512674.249044936
432.84605039999997,4389637.868783019
431.8611232,4231242.647836121
430.8831369,4046511.5339329015
429.9120175,3846326.037580522
428.94769169999995,3641418.204944663
427.9900874,3440349.6076041083
427.03913370000004,3251058.036501443
426.0947602,3078594.241371941
425.1568978,2924898.834404921
424.22547829999996,2791550.0683506187
423.3004343,2677649.860234138
422.3816994,2582477.255041457
421.4692081,2504421.209226472
420.56289569999996,2441959.4616615246
419.66269850000003,2393352.702766644
418.7685535,2356806.86320378
417.8803987,2331102.2283553286
416.9981727,2313778.6550946245
416.12181519999996,2303111.5133548807
415.25126639999996,2297142.718641914
414.38646760000006,2293000.0686706174
413.5273605,2289010.794140853
412.673888,2300205.927674704
411.8259934,2371582.6566701527
410.9836208,2501461.5546981283
410.14671519999996,2689954.0029568933
409.3152221,2936816.694574684
408.48908789999996,3242644.772896318
407.66825960000006,3609232.5140184574
406.8526847,4038138.3142053583
406.0423117,4495228.175167637
405.2370896,4893386.995892605
404.43696800000004,5231463.373616718
403.64189730000004,5511764.477020121
402.8518283,5732649.582613
402.0667126,5895253.0742149735
401.28650239999996,5998432.956943071
400.5111505,6041496.168293679
399.7406101,6041516.658871904
398.9748353,6041519.838625075
398.2137806,6041265.409711261
397.457401,6041263.365156732
396.7056521,6041295.0396361975
395.9584903,6041730.544861719
395.2158722,6041454.883480472
394.4777551,6041420.790763786
393.7440968,6041433.9443858685
393.0148555,6041409.578818235
392.2899901,6041221.252722883
391.56946,6041939.2725176485
390.853225,6041379.827523907
390.1412452,6041361.815008057
389.43348169999996,6041394.9083696725
388.7298955,6041574.260410816
388.03044839999995,6041219.490346205
387.3351027,6041153.969723145
386.6438209,6041200.2313953815
385.95656610000003,6041615.636105969
385.2733019,6042032.518946523
384.5939922,6041385.097285208
383.9186014,6041895.165613929
383.2470943,6041685.305335654
382.5794362,6041079.176220886
381.9155926,6041167.852483268
381.2555296,6041444.492427802
380.59921360000004,6041230.553285825
379.9466115,6041261.710395606
379.29769039999996,6041707.394694736
378.652418,6041379.232136399
378.0107622,6041134.208986878
377.37269130000004,6041385.9163315175
376.73817410000004,6041443.346187213
376.1071796,6041816.321081707
375.47967719999997,6041482.458660898
374.8556368,6041317.190620496
374.2350283,6041258.4849656625
373.6178223,6041353.7536600735
373.0039896,6042067.483345244
372.3935012,6041823.804705936
371.78632860000005,6040811.829108716
371.1824436,6041484.5851047225
370.5818182,6041195.02579913
369.98442489999996,6041625.9189440785
369.39023629999997,6041022.257141258
368.7992255,6041878.925864587
368.2113658,6041429.031744291
367.6266307,6041396.8151731035
367.0449943,6041888.438192125
366.4664305,6041880.862879123
365.89091410000003,6041322.242396664
365.3184196,6041825.422450356
364.7489221,6041344.680128872
364.18239689999996,6041521.649070662
363.61881960000005,6040974.502488477
363.058166,6041266.420470431
362.50041219999997,6041243.1941144215
361.94553460000003,6041168.224446082
361.3935098,6041218.86612098
360.8443147,6041358.020624982
360.29792630000003,6041805.066256266
359.754322,6040903.8947685985
359.2134795,6041705.613935349
358.6753765,6041350.343548995
358.1399912,6041288.939271701
357.6073018,6042195.773041675
357.077287,6041470.949530892
356.5499253,6041359.939494809
356.025196,6041686.86302498
355.50307799999996,6041540.2402952025
354.983551,6041971.484417371
354.4665945,6041521.301988845
353.95218839999995,6041940.819653255
353.4403127,6041484.792519623
352.9309478,6041195.741702118
352.42407410000004,6041060.117977393
351.9196722,6041589.062370944
351.4177232,6041591.983941306
350.91820789999997,6041368.107913623
350.4211078,6041141.494694468
349.9264043,6041189.702501101
349.434079,6041834.558304636
348.9441137,6041601.569787889
348.45649060000005,6042042.603290607
347.97119169999996,6041578.323328883
347.48819960000003,6041355.733911801
347.0074967,6041686.96680736
346.5290657,6041772.051652611
346.0528897,6041989.558580372
345.5789517,6041506.203389877
345.1072349,6041205.879892341
344.6377228,6041478.1656188015
344.17039889999995,6041183.71703496
343.70524710000007,6041236.97484971
343.24225110000003,6041088.9814441325
342.7813952,6040696.716645294
342.32266339999995,6041201.53857422
341.8660403,6041640.197813729
341.4115102,6041256.182020366
340.959058,6042569.646483852
340.5086685,6041782.5814460525
340.06032660000005,6041732.120719138
339.6140175,6041690.240217128
339.1697264,6040715.082755868
338.7274388,6041186.073556312
338.28714019999995,6042135.444902368
337.8488164,6042339.011060682
337.41245310000005,6040430.476888669
336.9780363,6041711.711848973
336.5455522,6042000.017219488
336.114987,6041553.280918643
335.686327,6041516.595590495
335.2595588,6041460.2229811875
334.834669,6042143.064115103
334.4116443,6040640.892781933
333.9904716,6041089.40866167
333.57113799999996,6043028.016341446
333.1536305,6038939.119015599
332.73793639999997,6041416.868444798
332.32404310000004,6040314.943944102
331.91193799999996,6038284.181115635
331.5016088,6041638.185226508
331.0930432,6043484.185356112
330.6862289,6043930.038633975
330.281154,6041949.40997912
329.8778065,6039302.6467550015
329.47617460000004,6043441.831022628
329.07624649999997,6042086.566930769
328.6780106,6040776.924226275
328.2814555,6043406.223347559
327.88656960000003,6039220.3530680565
327.4933418,6040715.1553172665
327.1017607,6042281.525896135
326.7118154,6044952.828898918
326.32349480000005,6043017.35920825
325.93678789999996,6043265.0346451225
325.5516841,6042830.252740746
325.16817260000005,6040135.326079872
324.7862428,6042196.398056517
324.40588419999995,6040886.319497765
324.0270864,6041079.51004674
323.649839,6040353.301411099
323.2741319,6041877.080112808
322.8999548,6040842.229339885
322.5272977,6041026.404584594
322.1561508,6042018.400323803
321.786504,6041363.8676674
321.4183476,6037951.827602083
321.0516719,6040889.134455265
320.6864673,6040872.4639511
320.3227243,6041192.808167078
319.96043330000003,6043977.182963066
319.5995851,6041270.703660077
319.2401704,6039252.198434022
318.8821799,6043916.274907097
318.5256045,6042159.267594445
318.1704352,6045525.581162368
317.8166631,6039640.827049983
317.4642791,6042121.922205826
317.1132746,6041769.825496348
316.76364069999994,6042107.278058837
316.4153688,6039166.738680095
316.06845039999996,6040981.75131138
315.72287689999996,6042758.038662538
315.37863980000003,6040385.06472973
315.0357308,6041495.666235801
314.6941415,6038753.922510295
314.3538639,6039434.382259692
314.0148896,6042906.93852455
313.6772106,6041550.33749627
313.3408189,6044125.7663253965
313.00570639999995,6041680.231464916
312.67186549999997,6039254.811943946
312.33928810000003,6042761.553036045
312.0079665,6041874.493992753
311.6778931,6041282.180934231
311.34906010000003,6039611.366586919
311.0214601,6041977.16521366
310.6950856,6043220.214871356
310.369929,6041213.023710695
310.04598300000004,6038848.143986842
309.7232403,6041300.964092977
309.4016935,6041401.340880151
309.0813356,6042127.331748418
308.7621594,6041630.044147317
308.4441577,6041081.7752796
308.1273236,6039355.862435449
307.8116501,6040645.565861463
307.49713019999996,5288004.334679359
307.18375710000004,4529941.974272355
306.871524,3776543.581078674
306.5604242,3020913.8916814825
306.2504509,2265091.735534274
