wave,flux
1817.164934,3.950788908388054
1790.1022050000001,-2.9139757190259044
1763.812741,11.528995610336134
1738.2646949999998,48.81490786733461
1713.427949,192.43062679813164
1689.273995,496.60137801172175
1665.7758310000002,998.9297529415668
1642.907862,1727.5504544320356
1620.64581,2689.1160390757714
1598.9666300000001,3917.5549638979883
1577.8484310000001,5416.829572640323
1557.270407,7227.797191670599
1537.212767,9222.522105763737
1517.65668,11304.290563014642
1498.5842089999999,13422.26416740138
1479.978265,15550.127195893823
1461.822555,17731.882782094886
1444.101535,19857.248748687758
1426.800368,21926.502683468632
1409.904887,23894.660319814826
1393.401553,25796.034742471733
1377.2774220000001,27724.46720007433
1361.520115,29666.172707641093
1346.117782,31610.817204888404
1331.059081,33606.24716843362
1316.3331449999998,35596.58434137451
1301.92956,37677.630534823074
1287.838342,39734.64933947527
1274.049912,41845.40056660325
1260.5550779999999,44013.24877125423
1247.345017,46051.244443259464
1234.4112519999999,48081.698353898224
1221.74564,50119.08863039901
1209.340352,52073.82887614957
1197.187859,54101.25931508463
1185.28092,56161.66446791204
1173.612564,58235.34394269028
1162.1760800000002,60398.31994544152
1150.9650060000001,62735.92489993823
1139.973115,65086.67623705893
1129.194406,67547.88558489124
1118.623093,70186.806869762
1108.253594,72767.02756947302
1098.0805269999998,75561.44088958624
1088.098695,78207.95447536322
1078.303081,80906.11751559537
1068.688841,83636.38618300113
1059.251295,86645.61704508435
1049.9859199999999,89685.35711677553
1040.8883449999998,92903.75957842935
1031.9543429999999,96293.36001395424
1023.1798259999999,100155.61732419534
1014.5608390000001,104217.85217205372
1006.0935529999999,108636.37182171288
997.774265,113261.0571616626
989.5993858999999,118204.73343552498
981.5654412999999,123431.59946349096
973.6690651,128836.54557770536
965.9069952,134199.83940520586
958.2760697000001,139635.26945716102
950.7732231000001,145147.94118391807
943.3954827,150539.7292195186
936.1399648,155859.35915928733
929.0038716,161219.37329883385
921.9844879000001,166394.48810323325
915.0791782,171677.9400514421
908.2853836000002,176866.27189753394
901.6006193,182114.81965765
895.0224714,187439.67085805445
888.548595,193372.83828509017
882.1767113,199664.28228919394
875.9046055,206677.6608501832
869.7301242999998,214110.4612216016
863.6511742999999,223000.7950279365
857.6657193,233200.93523369718
851.7717787,244869.18711626192
845.9674256000001,259417.18364485586
840.2507849,276130.9737318724
834.6200316000001,295939.91299270716
829.0733892000001,318613.47376243456
823.6091279,343991.8909372275
818.2255633999999,372807.0398554729
812.9210552000001,403746.7557253046
807.694005,436673.2036424418
802.5428559,470103.9334751234
797.4660904,505269.03031137475
792.4622299,542361.6732259899
787.5298327,581953.6430890316
782.6674933999999,626082.9440995211
777.8738417999999,674936.4143840862
773.1475413,734392.2789023822
768.4872882999999,802708.6323396754
763.8918112000001,887660.8340979406
759.3598692,986973.9366410365
754.8902515999999,1104247.950532375
750.4817767999999,1235060.1419600046
746.1332914,1381950.7469887089
741.8436694000001,1540528.223474919
737.6118116,1709862.9933236619
733.4366444,1882716.1113831103
729.3171195,2059729.719577108
725.2522127999999,2237672.508182272
721.2409241,2428346.2531772987
717.282276,2634085.4760666997
713.3753136,2869248.916979985
709.5191037000001,3137220.3173085037
705.7127343,3428026.942551746
701.9553139,3748640.254333183
698.2459709,4086038.409546321
694.5838534,4435169.6120361285
690.9681281000001,4785109.049525049
687.3979803,5107307.106024621
683.8726131,5378639.918733767
680.3912472999999,5598698.2271184055
676.9531202000001,5768230.4234720925
673.557486,5894952.683014156
670.2036149,5974066.807952003
666.8907926,6021175.808697215
663.6183202999999,6039312.8631783435
660.3855139,6040236.704479732
657.1917038,6040975.713705104
654.0362346,6040270.336960132
650.9184646000001,6043031.118545147
647.8377654,6043028.471654668
644.7935217999999,6039412.4161445135
641.7851312999999,6041992.768663034
638.8120038,6039737.808520863
635.8735614,6040345.27357348
632.9692378999999,6042156.419237725
630.0984786,6043653.161911091
627.2607402000001,6041967.264398816
624.4554901,6042131.639615841
621.6822068,6040757.216496985
618.940379,6041450.294606552
616.2295054,6041550.343908997
613.549095,6041464.081658791
610.8986664,6041185.877665739
608.2777476,6041861.715287375
605.6858758999999,6041607.867820703
603.1225977000001,6041477.756385542
600.5874682,6041225.380668659
598.0800512,6041992.522505179
595.5999188999999,6041175.056282912
593.1466518,6041688.049549916
590.7198384999999,6041282.858472448
588.3190752,6041284.874862904
585.943966,6041246.35263871
583.5941226,6040968.822793
581.2691637,6041911.02603925
578.9687155,6041558.401993539
576.692411,6041505.645780058
574.4398902,6041220.390287737
572.2107997,6041218.276932288
570.0047927,6041874.99914468
567.8215287,6041698.388896028
565.6606737000001,6040878.216733489
563.5218996,6041366.005852868
561.4048845,6041144.025539623
559.3093121,6041585.848612913
557.2348721,6041514.899041748
555.1812597,6041486.59663099
553.1481756000001,6041486.299534656
551.1353259,6041729.734686494
549.1424218999999,6040892.07326066
547.1691801,6041130.870638663
545.2153222000001,6041766.536019747
543.2805745000001,6041618.433978378
541.3646685,6041165.581919798
539.46734,6041446.102886703
537.5883299,6041663.404129726
535.7273833,6041483.756739383
533.8842498,6041564.08931619
532.0586836,6041484.360958613
530.2504428000001,6041524.15410356
528.45929,6041854.619670168
526.6849915,6041742.728573305
524.927318,6041024.835646799
523.186044,6041334.632565052
521.4609475999999,6041519.001811768
519.7518110000001,6041761.3312169975
518.0584200000001,6041105.4306800375
516.3805639,6041550.9506323775
514.7180356,6041286.784697949
513.0706316000001,6041812.737847061
511.43815149999995,6042149.863544318
509.82039860000003,6041703.862083374
508.2171791999999,6041640.814087948
506.628303,6041418.195756129
505.05358269999994,6041176.362210237
503.4928341,6041804.870260611
501.9458762,6041652.485494892
500.41253059999997,6041216.917771762
498.8926222,6042153.706236858
497.3859785,6041504.867284139
495.89242989999997,6041009.428696335
494.4118094,6041224.687042365
492.943953,6041380.823093665
491.488699,6041557.642753363
490.04588839999997,6041568.387759501
488.6153648,6041264.858433799
487.19697429999997,6041279.271742038
485.7905654,6041125.379469325
484.39598889999996,6041324.904776777
483.01309800000007,6041253.010903282
481.64174840000004,6041823.210848415
480.28179789999996,6041345.794148453
478.93310639999993,6041589.111601046
477.59553619999997,6041263.158755511
476.2689517,6041838.807651335
474.9532192,6041276.561977248
473.6482074,6042080.408491736
472.35378679999997,6041836.767065741
471.06982989999995,6040931.514413964
469.79621110000005,6041148.768687144
468.53280700000005,6041204.676073152
467.2794956999999,6041087.0600354
466.0361575,6041375.490746079
464.80267410000005,6041625.780869572
463.5789295,6041170.819361563
462.364809,6041375.7719008485
461.1601998,6041770.5311279185
459.9649909,6041389.432053452
458.7790727,6041334.378403703
457.6023374,6041640.148095914
456.4346788,6041584.394079269
455.2759921,6041024.742859409
454.12617439999997,6041472.507080203
452.9851239,6040661.909416008
451.85274060000006,6041290.968380229
450.7289258,6041533.18097667
449.6135822,6041591.692750198
448.5066141,6041210.6234079
447.407927,6041207.797769599
446.317428,6041427.928713112
445.23502520000005,6040958.8333446635
444.1606283,6041588.570458524
443.0941482,6041516.20221863
442.03549699999996,6041315.5987383975
440.9845882,6041353.855272179
439.9413364,6041467.853378959
438.9056575,6041052.617880707
437.87746860000004,6041007.594984688
436.85668780000003,6041405.2673045015
435.8432345,6041680.033264807
434.83702930000004,6041719.412735382
433.83799369999997,6041084.492613518
432.84605039999997,6041281.099298162
431.8611232,6041765.276419085
430.8831369,6041237.71748078
429.9120175,6041252.5883560125
428.94769169999995,6041076.622126679
427.9900874,6041129.270085206
427.03913370000004,6041143.464905108
426.0947602,6041597.098970354
425.1568978,6041302.658562157
424.22547829999996,6041300.315616772
423.3004343,6041589.109785193
422.3816994,6041524.248151707
421.4692081,6041221.759384887
420.56289569999996,6041577.686244418
419.66269850000003,6041424.435132638
418.7685535,6041568.644018891
417.8803987,6041456.26380049
416.9981727,6041115.923557389
416.12181519999996,6041693.628903886
415.25126639999996,6041380.418717408
414.38646760000006,6041179.726177133
413.5273605,6041162.112031767
412.673888,6040745.479408529
411.8259934,6036000.148256153
410.9836208,6026871.3010032475
410.14671519999996,6008934.631888674
409.3152221,5980823.430392536
408.48908789999996,5940395.242505544
407.66825960000006,5885892.351454457
406.8526847,5815022.378017535
406.0423117,5727710.037236601
405.2370896,5628304.270657501
404.43696800000004,5517465.308344761
403.64189730000004,5400025.532212493
402.8518283,5277953.608768676
402.0667126,5154805.979765505
401.28650239999996,5031590.114955333
400.5111505,4910912.141348048
399.7406101,4792781.5933605535
398.9748353,4676876.96520911
398.2137806,4561279.557530291
397.457401,4447316.299087326
396.7056521,4332635.31123838
395.9584903,4218629.470414557
395.2158722,4105893.9037092733
394.4777551,3994741.870479787
393.7440968,3887133.4459775514
393.0148555,3782736.6125436076
392.2899901,3682347.7503131083
391.56946,3586268.165847933
390.853225,3494693.6906880327
390.1412452,3406921.5674581323
389.43348169999996,3322085.471244095
388.7298955,3239456.459554017
388.03044839999995,3158787.1802035333
387.3351027,3079822.4436463313
386.6438209,3002414.2333704336
385.95656610000003,2927323.113821628
385.2733019,2854451.713221088
384.5939922,2785367.5641735946
383.9186014,2719811.4344313056
383.2470943,2658887.716228339
382.5794362,2603324.615217869
381.9155926,2553096.754356439
381.2555296,2509014.8049369687
380.59921360000004,2470204.747033901
379.9466115,2436974.098705837
379.29769039999996,2408641.5383119453
378.652418,2384411.565313944
378.0107622,2364143.7822968704
377.37269130000004,2346129.573757617
376.73817410000004,2329769.910854782
376.1071796,2314205.8000500533
375.47967719999997,2298508.020978855
374.8556368,2283359.407346772
374.2350283,2266598.7655891455
373.6178223,2248987.984244287
373.0039896,2230737.125708618
372.3935012,2212075.5090861246
371.78632860000005,2193147.479769177
371.1824436,2174216.143793039
370.5818182,2155703.9658974973
369.98442489999996,2138888.7424048963
369.39023629999997,2122785.5086723543
368.7992255,2108840.701400095
368.2113658,2096307.7618690776
367.6266307,2085981.840905891
367.0449943,2078187.7172907947
366.4664305,2072349.7586472013
365.89091410000003,2068781.8789048088
365.3184196,2067648.4861427543
364.7489221,2068272.230859482
364.18239689999996,2071056.8946876696
363.61881960000005,2075277.77144958
363.058166,2080644.760869773
362.50041219999997,2086545.1653378424
361.94553460000003,2092464.4821414612
361.3935098,2097298.918046172
360.8443147,2101200.8144983416
360.29792630000003,2103494.075475133
359.754322,2102994.8554131915
359.2134795,2099662.766714547
358.6753765,2093069.8318791888
358.1399912,2083625.3638334996
357.6073018,2071329.87210904
357.077287,2056193.6706614825
356.5499253,2038977.063002828
356.025196,2020448.1857805282
355.50307799999996,2000675.1002435759
354.983551,1981037.7291214985
354.4665945,1961770.6154590128
353.95218839999995,1943343.693326615
353.4403127,1926347.533819661
352.9309478,1910622.744505181
352.42407410000004,1896809.9352788497
351.9196722,1884862.366805905
351.4177232,1874382.3044786744
350.91820789999997,1865565.8451126344
350.4211078,1858346.4444561116
349.9264043,1852585.7467990224
349.434079,1848612.497780771
348.9441137,1846253.914469284
348.45649060000005,1844860.561861369
347.97119169999996,1845471.2702407897
347.48819960000003,1847386.643064416
347.0074967,1850266.1862472484
346.5290657,1853481.4508907287
346.0528897,1856435.7862558481
345.5789517,1857763.027914756
345.1072349,1855968.656706235
344.6377228,1849926.8397230275
344.17039889999995,1838029.405134675
343.70524710000007,1818760.6300640253
343.24225110000003,1791526.8097657908
342.7813952,1755212.6844333406
342.32266339999995,1709661.638274318
341.8660403,1655865.34663041
341.4115102,1593819.9922157219
340.959058,1525528.8007879397
340.5086685,1452005.7019567927
340.06032660000005,1375137.6321326292
339.6140175,1296413.9754991871
339.1697264,1217774.7563312077
338.7274388,1140029.5600062541
338.28714019999995,1064554.9947842315
337.8488164,992141.2046459364
337.41245310000005,922808.6555678627
336.9780363,857076.768274259
336.5455522,794783.1864608127
336.114987,735635.8291380423
335.686327,679802.6217488595
335.2595588,626975.3794828685
334.834669,576529.0380466464
334.4116443,529040.9673680329
333.9904716,484244.8807649146
333.57113799999996,441600.7361813589
333.1536305,401796.9419514189
332.73793639999997,364471.85522725055
332.32404310000004,329689.563692036
331.91193799999996,297680.3852533548
331.5016088,268273.647022894
331.0930432,241485.45163866534
330.6862289,217331.61823869852
330.281154,195607.51294167747
329.8778065,176582.8588084725
329.47617460000004,159508.42781502006
329.07624649999997,144800.84750020635
328.6780106,131951.00027595912
328.2814555,120977.65075037336
327.88656960000003,111499.57800316259
327.4933418,103420.58188461613
327.1017607,96473.93725879364
326.7118154,90726.49245734996
326.32349480000005,85681.90464781699
325.93678789999996,81301.26679004432
325.5516841,77504.55622058662
325.16817260000005,74135.55826486615
324.7862428,71099.66848587233
324.40588419999995,68265.64031532497
324.0270864,65614.95405486926
323.649839,63106.91863970197
323.2741319,60784.22029559418
322.8999548,58647.98313493611
322.5272977,56431.455107189024
322.1561508,54344.54463536769
321.786504,52285.72877233866
321.4183476,50298.435862224316
321.0516719,48379.822300087566
320.6864673,46511.900895644816
320.3227243,44708.443199576286
319.96043330000003,42955.81860894838
319.5995851,41255.09681415431
319.2401704,39592.34346894902
318.8821799,38046.777449574714
318.5256045,36467.787571733104
318.1704352,35006.286351159
317.8166631,33589.59042380606
317.4642791,32193.112365276244
317.1132746,30893.556060631203
316.76364069999994,29634.156280508018
316.4153688,28422.648497550734
316.06845039999996,27248.34244037478
315.72287689999996,26144.762684814545
315.37863980000003,25065.270505553617
315.0357308,24043.47082252357
314.6941415,23070.87859387527
314.3538639,22133.47855425643
314.0148896,21229.056942773408
313.6772106,20355.250671174435
313.3408189,19547.149925540067
313.00570639999995,18737.196449463125
312.67186549999997,17990.847144762018
312.33928810000003,17258.358719845397
312.0079665,16546.645890432865
311.6778931,15855.569141254573
311.34906010000003,15190.268080386304
311.0214601,14543.22855365097
310.6950856,13913.588594625451
310.369929,13302.36513635508
310.04598300000004,12697.821308740813
309.7232403,12111.730539699907
309.4016935,11547.749825938414
309.0813356,10994.364353108609
308.7621594,10460.193438536347
308.4441577,9917.866032878997
308.1273236,9393.092430834715
307.8116501,8881.318273079618
307.49713019999996,7308.601079338963
307.18375710000004,5859.395356250189
306.871524,4530.016189805701
306.5604242,3355.4380394029586
306.2504509,2316.7658271469445
