wave,flux
1817.164934,-3.0547925452068596
1790.1022050000001,2.5732433374606813
1763.812741,14.67008712135291
1738.2646949999998,42.110023799786624
1713.427949,185.53976842101125
1689.273995,492.05664326635116
1665.7758310000002,998.5413381396612
1642.907862,1730.0170312575424
1620.64581,2691.910876610116
1598.9666300000001,3912.280024110706
1577.8484310000001,5422.017927362484
1557.270407,7218.564569677828
1537.212767,9219.82692150502
1517.65668,11287.166014423303
1498.5842089999999,13406.210048701014
1479.978265,15549.64721923636
1461.822555,17685.854898736212
1444.101535,19833.286923258
1426.800368,21925.221208342282
1409.904887,23881.423255511618
1393.401553,25790.28994560868
1377.2774220000001,27733.2872942122
1361.520115,29623.591723209345
1346.117782,31616.788999659682
1331.059081,33612.549346485495
1316.3331449999998,35606.22812384247
1301.92956,37656.2888726769
1287.838342,39752.95897722311
1274.049912,41865.6631505304
1260.5550779999999,43961.03926452426
1247.345017,46045.3897634302
1234.4112519999999,48064.834334454456
1221.74564,50071.956951843604
1209.340352,52085.03909051864
1197.187859,54080.50904150924
1185.28092,56143.89382172679
1173.612564,58226.13905511424
1162.1760800000002,60432.84997590674
1150.9650060000001,62666.61558356622
1139.973115,65066.306807093984
1129.194406,67523.82923056366
1118.623093,70105.68700647452
1108.253594,72748.4148579302
1098.0805269999998,75448.86561125239
1088.098695,78145.41105461895
1078.303081,80867.79163720968
1068.688841,83660.28286377262
1059.251295,86595.56312014339
1049.9859199999999,89616.19016532194
1040.8883449999998,92850.95719985956
1031.9543429999999,96295.44013017329
1023.1798259999999,100023.95679745043
1014.5608390000001,104306.16537447851
1006.0935529999999,108591.8521559015
997.774265,113292.99654215314
989.5993858999999,118273.45880083552
981.5654412999999,123308.28325009676
973.6690651,128737.04627524289
965.9069952,134102.93790583411
958.2760697000001,139650.9782795136
950.7732231000001,145125.02272006386
943.3954827,150509.83093843184
936.1399648,155791.24872686865
929.0038716,161139.39416399552
921.9844879000001,166441.8412323721
915.0791782,171540.61675213286
908.2853836000002,176749.9960174709
901.6006193,182002.06917177013
895.0224714,187550.6627156493
888.548595,193404.38020494184
882.1767113,199592.9809951194
875.9046055,206492.87550157766
869.7301242999998,214261.6617315695
863.6511742999999,222682.42700141558
857.6657193,232790.7547734172
851.7717787,244883.3821088984
845.9674256000001,259287.41640211738
840.2507849,275953.32287096
834.6200316000001,295482.5746719357
829.0733892000001,317903.98337372066
823.6091279,343723.0834067134
818.2255633999999,372541.683698746
812.9210552000001,403469.2804777922
807.694005,436634.36511271494
802.5428559,470245.44846984424
797.4660904,504926.4416508165
792.4622299,541340.1202584475
787.5298327,582107.1463131795
782.6674933999999,625013.4317787342
777.8738417999999,674514.344989401
773.1475413,733378.1535557195
768.4872882999999,802667.8490872298
763.8918112000001,886932.2715912755
759.3598692,986457.1801483707
754.8902515999999,1101337.9251522494
750.4817767999999,1236417.846178606
746.1332914,1383617.2400956484
741.8436694000001,1541726.490521299
737.6118116,1708207.9826688878
733.4366444,1882854.2420319128
729.3171195,2055087.819085816
725.2522127999999,2238570.381604658
721.2409241,2425302.4504891704
717.282276,2632401.502549516
713.3753136,2868431.329893495
709.5191037000001,3134403.586019333
705.7127343,3429327.407692828
701.9553139,3747489.5015427917
698.2459709,4086438.951515157
694.5838534,4434641.470187523
690.9681281000001,4781052.465580245
687.3979803,5105978.107441907
683.8726131,5380168.674198211
680.3912472999999,5597755.904356106
676.9531202000001,5767611.636507434
673.557486,5891483.370641298
670.2036149,5976270.666816801
666.8907926,6020836.23513291
663.6183202999999,6039014.843484513
660.3855139,6041684.343717728
657.1917038,6040538.012477428
654.0362346,6040689.016248558
650.9184646000001,6040224.743573245
647.8377654,6043473.919864112
644.7935217999999,6042445.864857301
641.7851312999999,6041318.0330320485
638.8120038,6042094.345738358
635.8735614,6041189.208444865
632.9692378999999,6041597.398609849
630.0984786,6040904.371053531
627.2607402000001,6043270.884738859
624.4554901,6041147.473610723
621.6822068,6043355.065428452
618.940379,6041184.547290655
616.2295054,6041395.653882152
613.549095,6041180.4200689485
610.8986664,6041674.717340972
608.2777476,6041485.502847767
605.6858758999999,6041518.504453076
603.1225977000001,6041167.460269939
600.5874682,6040989.691403368
598.0800512,6041503.333555662
595.5999188999999,6041752.248969545
593.1466518,6041463.125900643
590.7198384999999,6041734.057553305
588.3190752,6041254.62452968
585.943966,6041678.711597837
583.5941226,6041585.228986262
581.2691637,6041170.803200733
578.9687155,6041130.669509742
576.692411,6041326.269933161
574.4398902,6041836.2708330015
572.2107997,6041484.628592925
570.0047927,6041622.757192307
567.8215287,6041387.543516313
565.6606737000001,6041202.6980193015
563.5218996,6041522.531984195
561.4048845,6041573.255845471
559.3093121,6041117.020762612
557.2348721,6041776.651974693
555.1812597,6041168.88156852
553.1481756000001,6041355.901136028
551.1353259,6041118.716592709
549.1424218999999,6041333.773146157
547.1691801,6041123.335326984
545.2153222000001,6041324.9898532685
543.2805745000001,6041697.530668425
541.3646685,6041456.847131925
539.46734,6041443.814411183
537.5883299,6041485.453850034
535.7273833,6041469.744548352
533.8842498,6041176.414820372
532.0586836,6041183.089713408
530.2504428000001,6041371.943112567
528.45929,6041201.697655155
526.6849915,6041710.367282673
524.927318,6041703.7976702275
523.186044,6041923.432216595
521.4609475999999,6041464.95498494
519.7518110000001,6041862.51308769
518.0584200000001,6041873.954593292
516.3805639,6041528.572717411
514.7180356,6041315.994051325
513.0706316000001,6041522.734876235
511.43815149999995,6041239.986866344
509.82039860000003,6041540.771843725
508.2171791999999,6040907.785274101
506.628303,6041399.451105626
505.05358269999994,6041340.516557078
503.4928341,6041098.429222754
501.9458762,6041301.589373862
500.41253059999997,6041067.48607846
498.8926222,6041276.930839813
497.3859785,6041704.460025845
495.89242989999997,6041583.842317248
494.4118094,6041655.791698501
492.943953,6041597.693354132
491.488699,6041774.032658428
490.04588839999997,6041288.881814633
488.6153648,6041690.712150427
487.19697429999997,6041594.84627898
485.7905654,6041137.742948501
484.39598889999996,6041493.807785981
483.01309800000007,6041269.488067041
481.64174840000004,6041859.118674354
480.28179789999996,6041438.969411281
478.93310639999993,6041270.974351161
477.59553619999997,6041501.310095962
476.2689517,6041585.541511877
474.9532192,6041755.685897356
473.6482074,6041491.914169569
472.35378679999997,6041921.432592237
471.06982989999995,6041581.615024178
469.79621110000005,6041168.337955572
468.53280700000005,6041279.288737238
467.2794956999999,6041436.15645199
466.0361575,6041793.726331358
464.80267410000005,6041413.569031954
463.5789295,6041506.832479139
462.364809,6041351.757928402
461.1601998,6041482.560685973
459.9649909,6041152.693951304
458.7790727,6041576.527316468
457.6023374,6041708.9991430985
456.4346788,6041556.619775419
455.2759921,6041462.561828071
454.12617439999997,6041383.8343650075
452.9851239,6041393.261276508
451.85274060000006,6041535.993513312
450.7289258,6041536.62730189
449.6135822,6041408.167422035
448.5066141,6041165.941462712
447.407927,6041327.251512738
446.317428,6040994.7307998575
445.23502520000005,6041192.317063417
444.1606283,6041369.42400863
443.0941482,6041517.45788256
442.03549699999996,6041346.652420835
440.9845882,6041145.323167818
439.9413364,6041299.851574812
438.9056575,6041034.622937582
437.87746860000004,6041462.398919553
436.85668780000003,6041173.022833928
435.8432345,6041718.458075116
434.83702930000004,6041269.896101142
433.83799369999997,6041569.82076617
432.84605039999997,6041793.865660456
431.8611232,6041550.624230947
430.8831369,6041237.061511842
429.9120175,6041692.787833722
428.94769169999995,6041930.057007181
427.9900874,6041578.490740969
427.03913370000004,6041479.451401956
426.0947602,6041551.24120406
425.1568978,6041208.339644674
424.22547829999996,6040689.535636692
423.3004343,6041389.650548669
422.3816994,6041694.4680112675
421.4692081,6041558.121977575
420.56289569999996,6041382.366035213
419.66269850000003,6041355.8301238185
418.7685535,6041521.455781328
417.8803987,6041259.772614335
416.9981727,6041283.616307832
416.12181519999996,6041418.291647191
415.25126639999996,6041576.342580673
414.38646760000006,6040782.56946838
413.5273605,6041497.177822648
412.673888,6040305.850019919
411.8259934,6036006.1384854615
410.9836208,6026320.259656153
410.14671519999996,6008512.751477073
409.3152221,5980282.7064635735
408.48908789999996,5939848.821020374
407.66825960000006,5885254.207081907
406.8526847,5813802.499059018
406.0423117,5726689.668076436
405.2370896,5626032.451610339
404.43696800000004,5515466.076992366
403.64189730000004,5397891.544814008
402.8518283,5276261.592045594
402.0667126,5152629.892550067
401.28650239999996,5030014.650158994
400.5111505,4908752.08396739
399.7406101,4790863.4336529635
398.9748353,4674879.611317705
398.2137806,4559667.885553634
397.457401,4445435.108819479
396.7056521,4331207.127243989
395.9584903,4217200.889842899
395.2158722,4104194.507866083
394.4777551,3993251.308509218
393.7440968,3885035.023990275
393.0148555,3781066.8642393406
392.2899901,3680893.609228217
391.56946,3584530.2722667404
390.853225,3493083.909051977
390.1412452,3405348.7561995583
389.43348169999996,3320584.904648586
388.7298955,3238278.3405788867
388.03044839999995,3157258.5687815845
387.3351027,3078205.486244681
386.6438209,3001159.365586707
385.95656610000003,2925995.8951939787
385.2733019,2853456.9380817306
384.5939922,2784144.932781221
383.9186014,2718732.521392272
383.2470943,2658106.292923885
382.5794362,2602541.692667381
381.9155926,2552077.8677841346
381.2555296,2507890.2577314377
380.59921360000004,2469316.7090750174
379.9466115,2436001.30261377
379.29769039999996,2407715.5159536293
378.652418,2383762.2359708496
378.0107622,2362924.410089927
377.37269130000004,2344939.30857439
376.73817410000004,2328791.6066182563
376.1071796,2313278.360300932
375.47967719999997,2297804.7760214573
374.8556368,2282183.2244144767
374.2350283,2265686.5515595786
373.6178223,2247993.22860432
373.0039896,2229853.0588435982
372.3935012,2210957.425458217
371.78632860000005,2192053.3884668574
371.1824436,2173222.0184758725
370.5818182,2155231.8216058286
369.98442489999996,2137746.9689310608
369.39023629999997,2121860.85585046
368.7992255,2107805.780529542
368.2113658,2095730.415594913
367.6266307,2085477.6851179798
367.0449943,2077514.239459821
366.4664305,2071498.0407375025
365.89091410000003,2068057.3483473044
365.3184196,2066771.5370902102
364.7489221,2067873.116318756
364.18239689999996,2070330.616994875
363.61881960000005,2074489.203349173
363.058166,2079838.3626601545
362.50041219999997,2085691.2786959338
361.94553460000003,2091344.3921827725
361.3935098,2096608.5938904763
360.8443147,2100799.684761228
360.29792630000003,2102539.0327761862
359.754322,2101839.3911400246
359.2134795,2098740.66165575
358.6753765,2092360.8080754632
358.1399912,2082938.2179261318
357.6073018,2070413.658927669
357.077287,2055486.7321827803
356.5499253,2038175.4025341298
356.025196,2019485.2723465515
355.50307799999996,1999881.53223592
354.983551,1980334.9240570941
354.4665945,1960845.9108589857
353.95218839999995,1942404.275107283
353.4403127,1925508.4752941031
352.9309478,1909861.7130274202
352.42407410000004,1896043.8624532374
351.9196722,1883935.943013221
351.4177232,1873682.777951377
350.91820789999997,1864965.891025664
350.4211078,1857787.7549791224
349.9264043,1852137.3501312085
349.434079,1848060.148053337
348.9441137,1845264.0614448925
348.45649060000005,1844355.922726376
347.97119169999996,1844844.0271817816
347.48819960000003,1846628.703841549
347.0074967,1849483.2930071047
346.5290657,1852584.9551564655
346.0528897,1855549.2720619987
345.5789517,1857016.2061550098
345.1072349,1855162.6449339248
344.6377228,1849184.1031518152
344.17039889999995,1837186.0904143897
343.70524710000007,1818249.91559178
343.24225110000003,1790642.5864049115
342.7813952,1754455.7400303204
342.32266339999995,1709089.6653750115
341.8660403,1655129.3795039947
341.4115102,1593216.8526085848
340.959058,1524869.7889086562
340.5086685,1451567.0584432585
340.06032660000005,1374412.2581809687
339.6140175,1295912.7867764104
339.1697264,1217282.3416380608
338.7274388,1139722.6631631579
338.28714019999995,1064078.6684340432
337.8488164,991458.5406550856
337.41245310000005,922440.2616472277
336.9780363,856556.9991614294
336.5455522,794377.5308243061
336.114987,735331.8526041958
335.686327,679622.5355569413
335.2595588,626645.4163399531
334.834669,576573.6831154333
334.4116443,528926.087871988
333.9904716,483864.34721501713
333.57113799999996,441378.095905395
333.1536305,401538.0188980811
332.73793639999997,364239.1655765371
332.32404310000004,329604.391211312
331.91193799999996,297623.59241879056
331.5016088,268175.40393228666
331.0930432,241331.60871689286
330.6862289,217233.37400385944
330.281154,195664.39049017162
329.8778065,176432.4161923237
329.47617460000004,159447.0813131958
329.07624649999997,144733.70424907474
328.6780106,131964.4459719477
328.2814555,120860.8859800584
327.88656960000003,111404.82781055098
327.4933418,103371.23155891069
327.1017607,96505.78535068259
326.7118154,90720.88849159764
326.32349480000005,85553.54037288512
325.93678789999996,81306.00059924937
325.5516841,77437.25600737549
325.16817260000005,74038.27598212236
324.7862428,71038.56884305931
324.40588419999995,68177.52504705296
324.0270864,65579.28517196147
323.649839,63158.147571235095
323.2741319,60797.38489609557
322.8999548,58524.48645939313
322.5272977,56389.109427675525
322.1561508,54290.004808333586
321.786504,52271.087156851114
321.4183476,50295.72521891623
321.0516719,48323.46969489153
320.6864673,46493.872238256445
320.3227243,44654.650188758984
319.96043330000003,42916.537294109534
319.5995851,41227.1850836329
319.2401704,39566.30330830436
318.8821799,38001.41818483088
318.5256045,36501.66244838714
318.1704352,34986.22652575935
317.8166631,33560.412820942474
317.4642791,32222.868925255036
317.1132746,30888.552704758018
316.76364069999994,29616.96021732166
316.4153688,28398.798058529435
316.06845039999996,27236.650487478604
315.72287689999996,26134.378560881112
315.37863980000003,25073.729112371628
315.0357308,24030.453116303397
314.6941415,23071.790815158773
314.3538639,22121.712244000308
314.0148896,21207.13780629641
313.6772106,20361.47629814867
313.3408189,19517.931594062964
313.00570639999995,18743.198102393217
312.67186549999997,17988.363953098276
312.33928810000003,17243.98658391886
312.0079665,16530.863469051783
311.6778931,15860.280095275295
311.34906010000003,15183.282849473504
311.0214601,14545.21925263407
310.6950856,13910.439718272986
310.369929,13294.425737021797
310.04598300000004,12696.15586536581
309.7232403,12111.142901530844
309.4016935,11541.07967386276
309.0813356,11003.286544036748
308.7621594,10463.11981948981
308.4441577,9914.896016902938
308.1273236,9400.703249651122
307.8116501,8870.201586358571
307.49713019999996,7305.475068800983
307.18375710000004,5850.441248677995
306.871524,4525.619176729882
306.5604242,3360.350807746333
306.2504509,2315.1556060973235
