wave,flux
1817.164934,1.5499812063106295
1790.1022050000001,1.1552743155207947
1763.812741,20.281421250495537
1738.2646949999998,64.90117461528803
1713.427949,225.87099371025863
1689.273995,578.5374044853063
1665.7758310000002,1132.7411006435327
1642.907862,1971.1381777583654
1620.64581,3120.108343693296
1598.9666300000001,4592.780900666523
1577.8484310000001,6414.193188261428
1557.270407,8619.290951369543
1537.212767,11102.494527094497
1517.65668,13697.110048002
1498.5842089999999,16413.650789402545
1479.978265,19224.95638091744
1461.822555,22045.682846723575
1444.101535,24851.116519057603
1426.800368,27627.39649233087
1409.904887,30345.664710129626
1393.401553,33082.8813458996
1377.2774220000001,35788.68719355744
1361.520115,38494.54311301773
1346.117782,41198.21943183848
1331.059081,43964.96464333339
1316.3331449999998,46751.02290837278
1301.92956,49527.87622017837
1287.838342,52331.530261755535
1274.049912,55164.856090884714
1260.5550779999999,58002.20918489329
1247.345017,60852.61168843276
1234.4112519999999,63802.72239842709
1221.74564,66645.37600841947
1209.340352,69603.26016898168
1197.187859,72593.33918173387
1185.28092,75615.88866605512
1173.612564,78678.21007216242
1162.1760800000002,81731.80947779349
1150.9650060000001,84880.8709962962
1139.973115,88016.27171123034
1129.194406,91228.71555004797
1118.623093,94417.66794597477
1108.253594,97672.49348686924
1098.0805269999998,100928.25296690484
1088.098695,104355.46163809534
1078.303081,107802.25600687238
1068.688841,111295.7705491622
1059.251295,115013.7092745972
1049.9859199999999,119044.76020995606
1040.8883449999998,123382.97517859224
1031.9543429999999,128095.78808194248
1023.1798259999999,133046.89444467213
1014.5608390000001,138452.45584920162
1006.0935529999999,144479.30946454042
997.774265,150831.9940480023
989.5993858999999,157372.46830214455
981.5654412999999,164206.66461087554
973.6690651,171342.42630442305
965.9069952,178808.13375601982
958.2760697000001,186222.7785776253
950.7732231000001,193592.3401939472
943.3954827,201096.23923873107
936.1399648,208376.6430553153
929.0038716,215570.68221480012
921.9844879000001,222707.31492265454
915.0791782,230346.97805629804
908.2853836000002,237164.456423948
901.6006193,244466.00024782342
895.0224714,252239.1581935989
888.548595,260547.16114737425
882.1767113,268714.53023818624
875.9046055,278280.1169253979
869.7301242999998,288597.2319722248
863.6511742999999,299551.94898819336
857.6657193,312568.642469242
851.7717787,326772.4077618727
845.9674256000001,342689.64214616327
840.2507849,360872.96032514155
834.6200316000001,381314.2128213652
829.0733892000001,404392.3028798022
823.6091279,429440.0974370594
818.2255633999999,457463.3389079375
812.9210552000001,488719.816999655
807.694005,521375.8813047789
802.5428559,556401.0674552477
797.4660904,595162.5144090197
792.4622299,635051.4119756565
787.5298327,680777.5605663032
782.6674933999999,732241.1005237732
777.8738417999999,791526.1782181588
773.1475413,861594.4418518969
768.4872882999999,945962.4619526184
763.8918112000001,1049016.9019590807
759.3598692,1169189.5735873953
754.8902515999999,1315118.0878367787
750.4817767999999,1478841.2849096314
746.1332914,1661333.2016187115
741.8436694000001,1861881.529597821
737.6118116,2075692.2418997136
733.4366444,2295791.733236234
729.3171195,2524478.1487331027
725.2522127999999,2758519.2650729385
721.2409241,3006960.151972259
717.282276,3274537.5407525143
713.3753136,3553222.032066688
709.5191037000001,3847953.638194191
705.7127343,4148531.599510725
701.9553139,4456681.577078312
698.2459709,4760730.157347385
694.5838534,5058208.65153074
690.9681281000001,5320536.937991482
687.3979803,5538690.213347387
683.8726131,5711661.446489275
680.3912472999999,5842855.201721258
676.9531202000001,5937842.913782762
673.557486,5997002.0869355975
670.2036149,6030406.911818729
666.8907926,6043353.894789224
663.6183202999999,6041062.323774919
660.3855139,6041901.497368346
657.1917038,6041850.082582397
654.0362346,6042133.60399243
650.9184646000001,6040770.580860149
647.8377654,6040639.252206522
644.7935217999999,6038670.542466423
641.7851312999999,6041954.557746864
638.8120038,6041780.589943067
635.8735614,6041789.2201072965
632.9692378999999,6042119.132114871
630.0984786,6042125.654550385
627.2607402000001,6041023.0239021275
624.4554901,6041987.149987629
621.6822068,6041637.667660459
618.940379,6041527.034450362
616.2295054,6041226.124093501
613.549095,6041188.92945157
610.8986664,6041727.7759138625
608.2777476,6041697.612905542
605.6858758999999,6041583.561284544
603.1225977000001,6041671.549338423
600.5874682,6041268.78718948
598.0800512,6041636.102350914
595.5999188999999,6041587.605747422
593.1466518,6041106.776013895
590.7198384999999,6041278.770277237
588.3190752,6041167.742420301
585.943966,6041374.200969831
583.5941226,6041605.082481159
581.2691637,6041116.754125332
578.9687155,6041213.903911213
576.692411,6041457.760195672
574.4398902,6041422.078701032
572.2107997,6041423.341561941
570.0047927,6041617.171522727
567.8215287,6041234.627156997
565.6606737000001,6041532.179587943
563.5218996,6041901.791248684
561.4048845,6041627.967868527
559.3093121,6041420.280762128
557.2348721,6041749.8857901385
555.1812597,6041050.818993447
553.1481756000001,6041029.563800361
551.1353259,6041418.190894677
549.1424218999999,6041266.312985355
547.1691801,6041497.284072642
545.2153222000001,6041231.78263098
543.2805745000001,6041315.572400816
541.3646685,6041486.157388828
539.46734,6041412.509651043
537.5883299,6041392.90431868
535.7273833,6041285.0291183125
533.8842498,6041261.779184554
532.0586836,6041550.949937855
530.2504428000001,6041091.873672132
528.45929,6041518.963264758
526.6849915,6041400.2447217
524.927318,6041589.087195298
523.186044,6041096.67429877
521.4609475999999,6041547.231919999
519.7518110000001,6041569.899750317
518.0584200000001,6041631.484397365
516.3805639,6041389.9987902185
514.7180356,6041304.308002433
513.0706316000001,6041545.569772063
511.43815149999995,6041815.692455724
509.82039860000003,6041108.142885388
508.2171791999999,6041979.4414292425
506.628303,6041535.733650313
505.05358269999994,6041480.073194628
503.4928341,6041600.86693842
501.9458762,6041613.433153178
500.41253059999997,6041095.390727873
498.8926222,6041219.353494829
497.3859785,6041377.6000703825
495.89242989999997,6041340.511311015
494.4118094,6041465.922596727
492.943953,6041234.322296018
491.488699,6041811.270782333
490.04588839999997,6041401.377201198
488.6153648,6041438.8229360515
487.19697429999997,6041381.119454833
485.7905654,6041702.806786108
484.39598889999996,6041425.327027435
483.01309800000007,6041169.852134627
481.64174840000004,6041826.111912313
480.28179789999996,6041525.194263966
478.93310639999993,6041234.178265138
477.59553619999997,6041235.898929594
476.2689517,6041251.277847711
474.9532192,6041214.1948239375
473.6482074,6041512.511345432
472.35378679999997,6041686.9407964
471.06982989999995,6041276.80436921
469.79621110000005,6041542.770071453
468.53280700000005,6041353.038436645
467.2794956999999,6041836.178250748
466.0361575,6041135.539643742
464.80267410000005,6040967.835271905
463.5789295,6041799.144919035
462.364809,6041050.557322379
461.1601998,6041609.05371095
459.9649909,6041529.868813697
458.7790727,6041611.540718923
457.6023374,6040851.281950883
456.4346788,6041151.1483751675
455.2759921,6041253.318806621
454.12617439999997,6041022.659223492
452.9851239,6041443.183347601
451.85274060000006,6041643.920777737
450.7289258,6041543.341566095
449.6135822,6041467.384297336
448.5066141,6041415.981144277
447.407927,6041340.502308555
446.317428,6041503.539329218
445.23502520000005,6041586.318199162
444.1606283,6041373.452444367
443.0941482,6041289.894399911
442.03549699999996,6041737.444030267
440.9845882,6041188.474468403
439.9413364,6041705.46521588
438.9056575,6041458.437150319
437.87746860000004,6041627.78859117
436.85668780000003,6041665.784257644
435.8432345,6041473.511676285
434.83702930000004,6041448.915286457
433.83799369999997,6041237.812923679
432.84605039999997,6041191.116387385
431.8611232,6041341.415273648
430.8831369,6041018.088378261
429.9120175,6041598.240428267
428.94769169999995,6041447.148703532
427.9900874,6041155.279488559
427.03913370000004,6041510.038711295
426.0947602,6041874.102642948
425.1568978,6041412.140700812
424.22547829999996,6041539.721512983
423.3004343,6041670.499780727
422.3816994,6040998.472919202
421.4692081,6041435.26793273
420.56289569999996,6041550.19521128
419.66269850000003,6041558.796354137
418.7685535,6041332.476379912
417.8803987,6041486.623334345
416.9981727,6041873.831206363
416.12181519999996,6041227.762901707
415.25126639999996,6041117.47088328
414.38646760000006,6041540.195860985
413.5273605,6041226.833171093
412.673888,6039095.321589054
411.8259934,6032819.958606147
410.9836208,6019988.281075901
410.14671519999996,5998647.832160233
409.3152221,5967635.9603916425
408.48908789999996,5923892.786247664
407.66825960000006,5864866.147464583
406.8526847,5788935.3723917315
406.0423117,5696923.107020033
405.2370896,5592094.018952187
404.43696800000004,5474232.6782468185
403.64189730000004,5345973.44332465
402.8518283,5208520.381954487
402.0667126,5065282.051582107
401.28650239999996,4918396.978026809
400.5111505,4769470.6407199185
399.7406101,4621578.182385432
398.9748353,4474078.130284155
398.2137806,4327816.590249625
397.457401,4185240.4093069485
396.7056521,4045110.687984908
395.9584903,3908903.758682618
395.2158722,3776466.864634513
394.4777551,3647557.5166357374
393.7440968,3521556.7263826667
393.0148555,3398265.1559020206
392.2899901,3277571.3572621983
391.56946,3159067.3342436883
390.853225,3042696.5878991093
390.1412452,2928713.5584542523
389.43348169999996,2817226.650755053
388.7298955,2709786.4079759587
388.03044839999995,2605782.8003599546
387.3351027,2505937.054111916
386.6438209,2411903.944767016
385.95656610000003,2322893.270816474
385.2733019,2239744.60015854
384.5939922,2162439.951442532
383.9186014,2090861.8615640718
383.2470943,2025002.6488981885
382.5794362,1964873.9857381359
381.9155926,1909261.8777905968
381.2555296,1858741.9443340125
380.59921360000004,1813090.5227387156
379.9466115,1771436.9359896146
379.29769039999996,1733783.5232480096
378.652418,1700315.398972914
378.0107622,1670283.5210685208
377.37269130000004,1643679.295511143
376.73817410000004,1620171.5777500737
376.1071796,1599179.9302519062
375.47967719999997,1581102.653156655
374.8556368,1565030.4801711438
374.2350283,1550801.24322012
373.6178223,1538157.1370967112
373.0039896,1527125.433867516
372.3935012,1517026.7729594118
371.78632860000005,1508338.3495274892
371.1824436,1500382.7424397091
370.5818182,1493546.6466052702
369.98442489999996,1487137.2192525924
369.39023629999997,1481296.5834774564
368.7992255,1475949.5693651591
368.2113658,1470624.5374264682
367.6266307,1465181.2090144882
367.0449943,1460027.3157288618
366.4664305,1454545.9020921176
365.89091410000003,1448889.1996644097
365.3184196,1442603.2990845644
364.7489221,1436305.0668907696
364.18239689999996,1429447.7253638252
363.61881960000005,1421986.0985061885
363.058166,1414590.0914533315
362.50041219999997,1406336.4880786315
361.94553460000003,1397942.63206054
361.3935098,1388822.8450319215
360.8443147,1379190.8302561962
360.29792630000003,1369003.7977568551
359.754322,1358686.0698692454
359.2134795,1347778.7485513522
358.6753765,1336364.8333716136
358.1399912,1324582.112026353
357.6073018,1312563.9881167642
357.077287,1300490.6518640209
356.5499253,1288097.8294060745
356.025196,1275544.148721038
355.50307799999996,1262789.0287275002
354.983551,1249987.7670395926
354.4665945,1236832.3842687095
353.95218839999995,1223234.7675125408
353.4403127,1209425.3105185751
352.9309478,1194876.8967003652
352.42407410000004,1179586.0405193053
351.9196722,1163367.0983251994
351.4177232,1145973.635091202
350.91820789999997,1127438.2173687275
350.4211078,1107298.052851519
349.9264043,1085848.829196666
349.434079,1062538.387144775
348.9441137,1037538.1022592995
348.45649060000005,1011156.012844734
347.97119169999996,983562.5454269195
347.48819960000003,954868.966842558
347.0074967,925223.744718138
346.5290657,895521.076424045
346.0528897,866079.3828193202
345.5789517,837141.8796514666
345.1072349,809430.6901411356
344.6377228,783265.4102763147
344.17039889999995,758892.8675554553
343.70524710000007,736709.9892666794
343.24225110000003,716168.8827913627
342.7813952,697793.2635024225
342.32266339999995,680935.1265490098
341.8660403,665335.7641210296
341.4115102,650673.5402353281
340.959058,636441.6034504282
340.5086685,622267.1810113514
340.06032660000005,607657.5843982066
339.6140175,592348.7520008676
339.1697264,576105.5465854794
338.7274388,558687.4466601305
338.28714019999995,540166.513970005
337.8488164,520453.6474881326
337.41245310000005,499613.35696506576
336.9780363,477852.80002594047
336.5455522,455192.8011391855
336.114987,431809.85725089256
335.686327,408037.5394632209
335.2595588,383964.0171270951
334.834669,359645.1462332659
334.4116443,335512.74235163943
333.9904716,311323.4300834455
333.57113799999996,287831.8291653125
333.1536305,264737.69797519315
332.73793639999997,242384.46405055717
332.32404310000004,220915.42944281624
331.91193799999996,200428.1756460649
331.5016088,181078.5184212627
331.0930432,162931.59742621114
330.6862289,146097.57446331365
330.281154,130719.25460623027
329.8778065,116717.10664463678
329.47617460000004,104177.28697645072
329.07624649999997,93083.84832856312
328.6780106,83278.46184181525
328.2814555,74794.54434755763
327.88656960000003,67469.80180126075
327.4933418,61350.47133529827
327.1017607,56139.773561607595
326.7118154,51775.89190219289
326.32349480000005,48109.6094311873
325.93678789999996,45075.66829169537
325.5516841,42484.772292016656
325.16817260000005,40306.799655099465
324.7862428,38409.23832577237
324.40588419999995,36763.515103895064
324.0270864,35358.943648249464
323.649839,34031.161745959915
323.2741319,32779.64550697973
322.8999548,31660.682929427792
322.5272977,30570.69099724732
322.1561508,29502.673316908436
321.786504,28463.16237601313
321.4183476,27480.355428727245
321.0516719,26507.65257609804
320.6864673,25541.73044831172
320.3227243,24610.140632310744
319.96043330000003,23656.72140351077
319.5995851,22731.66827715293
319.2401704,21836.003236182813
318.8821799,20928.140981711
318.5256045,20038.571120887376
318.1704352,19188.05916735971
317.8166631,18369.849648770432
317.4642791,17545.247821314315
317.1132746,16780.496772268238
316.76364069999994,16048.981541915357
316.4153688,15315.397802278303
316.06845039999996,14642.538415290646
315.72287689999996,13987.074057210586
315.37863980000003,13345.961046668352
315.0357308,12770.620831243792
314.6941415,12189.567045203516
314.3538639,11642.772492840964
314.0148896,11121.642487601826
313.6772106,10624.08723832682
313.3408189,10138.428364076746
313.00570639999995,9681.32300583409
312.67186549999997,9229.938940612312
312.33928810000003,8817.778129877284
312.0079665,8397.623241912686
311.6778931,8001.132316130636
311.34906010000003,7616.849862584005
311.0214601,7242.436623264871
310.6950856,6886.187585646129
310.369929,6537.737974518337
310.04598300000004,6200.31879525852
309.7232403,5875.919601475623
309.4016935,5558.598321181428
309.0813356,5263.72752082836
308.7621594,4974.049875088421
308.4441577,4700.927492612454
308.1273236,4449.545113293806
307.8116501,4202.20631705914
307.49713019999996,3480.742726785541
307.18375710000004,2825.109531650537
306.871524,2230.271245551811
306.5604242,1680.604981118242
306.2504509,1195.477880796037
