wave,flux
336,66093.9520925611
338,81491.4677204051
340,96975.27598128993
342,114786.15316769705
344,137844.86155759927
346,164757.11428158463
348,190633.59855842212
350,211959.4484503266
352,228056.70990225388
354,239985.75897553551
356,249642.37720242716
358,258621.89811836704
360,267522.8471578851
362,276481.3618004826
364,285894.76537574385
366,295810.74186204845
368,305838.78407894465
370,315663.8121628527
372,325759.4630642954
374,337512.88347145834
376,352771.5899761311
378,373029.4833263093
380,399564.0412117796
382,433364.4578790346
384,475126.9372318068
386,524918.2354314551
388,582070.4181742554
390,645194.7541164949
392,713213.4367394686
394,784569.891531766
396,858213.478556216
398,933395.3658515315
400,1010444.1940500695
402,1089925.0015801103
404,1172415.8291709782
406,1258325.8215313554
408,1348500.2546460722
410,1441601.5359493138
412,1534579.8024001403
414,1624257.42162392
416,1708657.4947191214
418,1790190.3080745372
420,1874041.824538594
422,1965522.7845922844
424,2067586.357493801
426,2177774.099610721
428,2289699.2502129045
430,2394771.3372896267
432,2485835.9573235717
434,2561232.7890410786
436,2625966.5800369866
438,2688240.7991695236
440,2757192.8716915813
442,2837969.6333164065
444,2932332.655868771
446,3037107.1969868825
448,3148904.9789035916
450,3263176.104305467
452,3378751.6768225916
454,3494496.941344713
456,3609793.9471276714
458,3724824.6984585896
460,3838371.1027381434
462,3951498.182221572
464,4063360.8090656674
466,4178074.3774279114
468,4299242.383037614
470,4432591.100704784
472,4583267.255695437
474,4752604.890475305
476,4938200.65925712
478,5134764.547876513
480,5330356.276830356
482,5513675.20105134
484,5673736.189965292
486,5804072.650115256
488,5901307.682695129
490,5966510.936832927
492,6006655.968427041
494,6028215.0320429895
496,6038171.143754263
498,6041257.792548929
500,6041872.340262048
502,6041437.332009881
504,6041332.272874304
506,6041391.004869977
508,6041102.953978061
510,6041588.910838337
512,6041124.467915563
514,6040873.900333607
516,6041184.018164427
518,6041475.78782658
520,6041574.645836031
522,6041296.392228436
524,6041412.643723922
526,6041479.427508721
528,6041334.671683541
530,6041267.62305781
532,6041250.593774894
534,6041151.523669437
536,6041232.962133903
538,6041331.213545345
540,6041261.337370365
542,6041243.733579207
544,6041534.27055109
546,6041165.968194033
548,6041774.877151741
550,6041522.738066842
552,6041342.089165635
554,6041537.83457983
556,6041589.615299594
558,6041813.571393636
560,6041615.192572389
562,6041253.990097127
564,6041620.164296514
566,6041944.5444285115
568,6041237.553101063
570,6041403.133296955
572,6041605.476547361
574,6041489.753205893
576,6041350.407604027
578,6041093.198591628
580,6041310.979806632
582,6041817.999936958
584,6041788.269917897
586,6041505.357752262
588,6041348.165718726
590,6041343.302032213
592,6041461.893971736
594,6041335.856991817
596,6041217.657659208
598,6041643.924815962
600,6041736.91184956
602,6041667.740848797
604,6041679.812821025
606,6041718.344611398
608,6041622.233457314
610,6041408.38840837
612,6041505.173503246
614,6041571.6010113
616,6041338.921020349
618,6041864.642038319
620,6041664.721374958
622,6040709.58711079
624,6040586.015665548
626,6041211.001856647
628,6041668.755354836
630,6041496.1737804385
632,6041207.210493073
634,6041111.895339547
636,6041328.968129694
638,6041556.363812287
640,6040655.515135786
642,6040459.080033362
644,6042877.594113115
646,6043251.680814074
648,6041372.622563073
650,6040394.698217842
652,6040431.333740257
654,6040978.92694945
656,6041533.875664554
658,6041592.577704702
660,6041413.539862718
662,6040954.8275461625
664,6041491.992388595
666,6041478.291403418
668,6041713.290908161
670,6041609.765837444
672,6041444.992216015
674,6041454.544994105
676,6041527.362444476
678,6041638.522764469
680,6041494.446884303
682,6041015.8093492575
684,6041353.512859509
686,6040967.708720909
688,6041040.320653292
690,6041507.60826993
692,6041456.289043377
694,6041283.034569212
696,6041045.926292268
698,6041441.518541326
700,6041689.689811476
702,6041146.12333331
704,6041591.472841484
706,6041381.018325565
708,6041600.895686753
710,6041756.231171089
712,6041262.129224983
714,6041486.848769299
716,6042055.692976101
718,6041486.820288234
720,6041256.069474835
722,6041424.69917892
724,6041755.5377047295
726,6041635.555289127
728,6041355.192669942
730,6041361.727543204
732,6041580.176183794
734,6041441.746394992
736,6041651.331541375
738,6041281.309022485
740,6041077.428389212
742,6041708.819860959
744,6040885.004626786
746,6041516.677923027
748,6041216.7595510185
750,6041427.881125908
752,6041964.847426974
754,6041171.76245252
756,6041661.77459573
758,6041430.730892511
760,6041308.031969697
762,6041466.786320331
764,6041533.520927876
766,6041357.447906586
768,6041676.254589259
770,6041664.334112434
772,6040974.05205688
774,6041592.9094983
776,6041242.979444776
778,6041552.217887481
780,6041447.774261315
782,6041227.429848041
784,6041448.94219562
786,6041360.758125459
788,6040910.1771161575
790,6041795.273892568
792,6041084.159696008
794,6041268.734017015
796,6041192.904552904
798,6041569.631802832
800,6041405.033396592
802,6041993.820206534
804,6041318.039880657
806,6041235.177067544
808,6041593.776214764
810,6041328.282807999
812,6041226.620387309
814,6041404.132041921
816,6041633.799046633
818,6041339.171704209
820,6041464.515027451
822,6041432.668440633
824,6041368.572820249
826,6041805.160799809
828,6041408.657012068
830,6041414.144752765
832,6041747.23685501
834,6040992.510972094
836,6041640.889080432
838,6041417.576034892
840,6041492.585241062
842,6041140.613069915
844,6041563.1552829435
846,6041295.585107425
848,6041702.99670389
850,6041175.289357177
852,6041078.436236564
854,6041559.405725157
856,6041220.20723977
858,6041312.532756859
860,6041368.586427716
862,6041375.958700909
864,6041465.814559326
866,6041141.105024491
868,6040958.284812736
870,6041577.861591089
872,6040977.278770326
874,6041630.124502481
876,6041255.45485039
878,6041224.142114473
880,6041551.985588573
882,6041391.495673872
884,6041722.884736956
886,6041230.572655569
888,6041035.86479849
890,6041179.282574754
892,6041571.288448033
894,6041339.60053987
896,6041467.829326341
898,6041450.268193274
900,6041222.046419687
902,6041196.257555013
904,6041466.988317235
906,6041106.912210718
908,6041551.365097328
910,6041056.377395242
912,6041605.956988741
914,6041514.9770144215
916,6041364.742073426
918,6041453.15943254
920,6039812.418032641
922,6022426.983109038
924,5976927.204712567
926,5894294.422968576
928,5766353.48103002
930,5589682.571770723
932,5358368.744371753
934,5080546.555216735
936,4780847.244672386
938,4478696.271713768
940,4189666.989030551
942,3922127.463121858
944,3682143.7503879904
946,3473758.489548889
948,3291161.448300235
950,3121894.1882330263
952,2957943.165294333
954,2793346.85188012
956,2624906.098532289
958,2453632.980812581
960,2280845.6954843686
962,2110265.223256376
964,1946715.4698409466
966,1792239.4061744416
968,1651390.4790396097
970,1525189.1018895577
972,1414910.1488705298
974,1319550.5510143833
976,1238154.9294410099
978,1168784.1086915825
980,1108449.014634131
982,1055447.5334096407
984,1006578.4044014664
986,960376.0307113401
988,915638.3407596356
990,871262.1066033305
992,827103.0808193102
994,783039.0411346906
996,739772.2983417806
998,697865.0137002147
