wave,flux
336,256.8679524991443
338,328.3522651586949
340,405.10483029447255
342,496.4915593718457
344,572.4013564402537
346,639.8405596788059
348,710.452438476676
350,727.2669053887566
352,736.6142955820247
354,765.8958390565318
356,780.0288987430226
358,782.3332936026854
360,785.1001898676121
362,766.9810477016254
364,710.4184930211719
366,661.8282721765191
368,615.3156218772223
370,568.9014068285577
372,532.8519955744116
374,501.485252739398
376,483.1343190825618
378,489.75557365829945
380,504.45305436181496
382,527.875128282532
384,560.347440233462
386,619.2573449381179
388,680.2687475046918
390,739.0364540579315
392,809.2176626021735
394,859.2606594574278
396,896.1947796861602
398,958.4454429576765
400,997.1697188413983
402,1043.3113647208493
404,1157.1833984479433
406,1245.8491443574585
408,1348.7433495466232
410,1425.039512785712
412,1485.1939562508237
414,1468.2468180184787
416,1513.2081879564591
418,1531.8119560782377
420,1617.742730443894
422,1723.6084574755168
424,1928.2535302780861
426,2115.3995717497864
428,2407.9324454467337
430,2625.0455843813716
432,2764.3699967190614
434,2795.2138395640936
436,2757.7089157426176
438,2699.1332962429756
440,2645.3244581236986
442,2595.4792874262134
444,2597.929224283135
446,2634.809134487991
448,2763.7695765286608
450,2904.1814087528746
452,3090.318795789998
454,3302.544547280359
456,3589.213067678837
458,3957.234695225182
460,4311.369257993475
462,4622.886783883937
464,4983.96745075725
466,5222.907887232215
468,5332.302519095887
470,5462.159998376124
472,5656.530484552433
474,5771.52808136248
476,6077.240011807491
478,6421.3731923485475
480,6672.792828162326
482,6992.363733817947
484,7168.415269022455
486,7200.106843609394
488,7164.28945964073
490,6977.480663210211
492,6796.508231819479
494,6478.1456992279855
496,6194.995753589024
498,5991.126060607915
500,5836.689790878165
502,5714.21262994888
504,5647.78952793699
506,5601.8082329130475
508,5647.790785303812
510,5590.676006626031
512,5691.537201614608
514,5760.801584135768
516,5724.612825330521
518,5838.464935566541
520,5979.541174894277
522,6017.5368326954285
524,6037.91784368944
526,6214.728691370676
528,6249.977037162194
530,6196.808104171358
532,6322.225632199647
534,6427.374824260225
536,6502.436488625844
538,6545.681419127049
540,6582.511015312628
542,6617.591948776591
544,6719.7959992919905
546,6816.955311638217
548,6785.690232528657
550,6925.021363497328
552,7083.059999174052
554,7209.177705977711
556,7412.457017523651
558,7622.199664077657
560,7815.216282006434
562,7992.378007530546
564,8270.431814181018
566,8517.248404661661
568,8698.85256653148
570,8902.979912131093
572,9144.504905290461
574,9295.712998933845
576,9552.698971046553
578,9710.202644565481
580,9939.532126209046
582,10243.486262723245
584,10438.73672241469
586,10673.08020474546
588,10757.827967085239
590,10955.479110174278
592,11250.84235528629
594,11536.880592004922
596,11834.997697533026
598,12161.410707456413
600,12375.047563583621
602,12594.977025945245
604,13049.661259340719
606,13552.301889089897
608,13823.063335101622
610,14468.26483511503
612,15341.263158880785
614,16245.578404873908
616,17040.077026189916
618,17462.357161073876
620,18817.850984038443
622,20756.183321936238
624,21544.844699469253
626,21163.94153220281
628,19869.721568882964
630,17918.432558255718
632,15566.322249067125
634,13069.638390063208
636,10684.62872998999
638,8667.54101759351
640,7274.623001619797
642,6762.122430814881
644,7386.2870539247915
646,9403.36461969556
648,13069.602876873214
650,18641.24957420379
652,26182.950644791235
654,33620.92092710423
656,38902.36565186977
658,40963.98228496277
660,40281.20092141683
662,36315.67471157023
664,29901.16778824753
666,23624.795735167074
668,18232.550578734885
670,15431.956006849807
672,14512.580667414499
674,14725.477546801341
676,14729.275211268587
678,13963.650362002341
680,12681.64074516577
682,11747.071523155788
684,11163.41697293437
686,11018.644570631395
688,11019.261754301888
690,10902.533605600804
692,10905.399519331748
694,10866.619514186887
696,10857.464849592074
698,11161.294826910556
700,11731.346152080805
702,12268.996528434272
704,12730.929106634634
706,12946.503143172231
708,12877.886415879424
710,12583.429573735304
712,12397.303647061448
714,11974.826306676685
716,11925.517907712449
718,11707.12734698546
720,11887.03384024454
722,11892.843884458849
724,12330.038825636857
726,13010.295248172824
728,13544.755861766454
730,14349.522638118055
732,14945.997933675935
734,15938.556584232138
736,16728.2844878349
738,17735.587171367828
740,18451.23087771998
742,19345.17440838571
744,20182.198466171372
746,20838.87378286607
748,21552.214581222168
750,22043.651310857225
752,22042.923598887723
754,21982.161339133792
756,21559.685841420855
758,21069.551531897447
760,20397.142202939758
762,19725.003941014544
764,19298.541484009053
766,18755.26808638586
768,18253.07581938158
770,18283.640522475627
772,18464.030636048054
774,18809.955375417372
776,19042.24879132765
778,19720.960114508784
780,20384.469628574
782,20932.17071693821
784,21435.527880183312
786,21952.36272764475
788,22327.281561046217
790,23135.543019319648
792,23530.930262238806
794,24470.398203514414
796,25156.601042310325
798,26378.74781574
800,27443.078559075046
802,28336.884143104635
804,29328.23407354051
806,30731.07491079004
808,31655.438375103844
810,32530.758155413638
812,33458.4139081672
814,34120.04070851471
816,34802.86383229553
818,35491.11356381674
820,35319.17075976373
822,35699.028092028806
824,35903.59240398976
826,35728.70842085725
828,36131.370156106226
830,35915.607398971886
832,35978.75029396549
834,35869.811940198466
836,35489.46302759493
838,35837.83327456185
840,35678.94069398405
842,35467.674357635166
844,35145.741567375
846,35412.73947755957
848,35616.76255367334
850,34965.29003639086
852,34928.459618283036
854,34811.76747044929
856,34743.74715568406
858,34831.05104324113
860,34857.150118492136
862,34692.19350577168
864,35312.1527788618
866,35066.04259627869
868,35418.799436078625
870,35866.56527723058
872,35445.46180924289
874,36004.46980002999
876,35703.80785673127
878,36286.938986537425
880,36193.21411655144
882,35857.90174103267
884,36086.635395230056
886,35362.46063759463
888,35371.554047934
890,34918.17523493635
892,34170.61407791655
894,33603.875210758975
896,32984.249625933364
898,32191.265239637247
900,31370.02503951978
902,30200.70631597852
904,29124.997926211123
906,28007.851025438446
908,26418.48224118604
910,25189.615248696256
912,23809.524517857477
914,22061.47000332515
916,20329.85687021236
918,18898.77528330164
920,16724.66421016662
922,15265.629020089498
924,13682.804875482674
926,12287.086882759873
928,10514.356975697365
930,9406.141331705927
932,8258.627224161273
934,7299.4989443956965
936,6724.2058576665295
938,5717.6185112468265
940,5413.796388889841
942,4901.9316318755045
944,4606.612824574044
946,4282.49259611407
948,4113.029018246741
950,3858.704922360595
952,3738.13918645227
954,3482.0913900184205
956,3367.875136330715
958,3127.7278720683967
960,2968.7866390415907
962,2652.459167150301
964,2511.7886180209493
966,2280.9955505423263
968,2113.4447638064253
970,1934.0228355686813
972,1763.6751924335213
974,1647.8614029391517
976,1509.553263265781
978,1490.5793518692958
980,1384.783070430902
982,1278.3591878521456
984,1252.8374799319736
986,1183.5172053389228
988,1131.7320383120723
990,1106.9389191183627
992,1039.957830271898
994,991.927859823569
996,899.2061539057196
998,886.1716642297879
