wave,flux
336,111.22897614422966
338,129.93273096740035
340,155.10441659843406
342,174.56070800417243
344,218.64249046131113
346,263.2941519254403
348,307.6979430678128
350,323.9016875633709
352,351.70192940064567
354,372.16723999113157
356,396.73814490561927
358,396.8786782504019
360,406.1300456072496
362,422.27864701219585
364,442.3569013045253
366,441.7241090205991
368,469.04944177940195
370,466.32394567522914
372,488.1556316188825
374,511.5618154657824
376,535.5344217618875
378,574.0110790237532
380,609.430703836804
382,652.568934598063
384,700.2410038136222
386,803.9039992682581
388,875.3057587662345
390,981.7328874122154
392,1092.9586979358553
394,1196.3804006235603
396,1293.4909178217033
398,1426.40926366945
400,1574.6739088774027
402,1681.2821448065185
404,1795.9325213680827
406,1926.5937462396737
408,2060.5917749775826
410,2193.1105681245767
412,2331.7448953643143
414,2462.1614839423187
416,2548.6477548506955
418,2676.3678034145373
420,2760.54620003328
422,2846.927639412535
424,3032.050672848239
426,3060.2044358654894
428,3179.713439991738
430,3215.249210618707
432,3361.7721592193266
434,3480.1267544550024
436,3555.5719953935327
438,3576.252935758642
440,3714.4172811936755
442,3688.212984847582
444,3878.247454166537
446,3949.996163971818
448,3991.25658146738
450,4142.987067849912
452,4265.888848417158
454,4373.32002314952
456,4410.081503718729
458,4588.14320184814
460,4704.35134717983
462,4741.14931999627
464,4892.687689997962
466,5010.501881508059
468,5095.051217236776
470,5224.036055500633
472,5299.520324949844
474,5474.695814328305
476,5593.372374223205
478,5743.844456919877
480,5913.195226256814
482,6017.18037468334
484,6160.224833385211
486,6210.016154280436
488,6379.394629019221
490,6384.485078276414
492,6553.84768725743
494,6523.6757277712
496,6586.062281122907
498,6736.776840992192
500,6846.784897264733
502,6855.100900453993
504,7076.33099606379
506,7116.709870299416
508,7046.555177281667
510,7347.719167822894
512,7415.1530598377885
514,7479.565144439859
516,7661.3173138323245
518,7754.6420417232775
520,7798.661737414447
522,7924.447925403275
524,8078.396261759377
526,8055.051470730591
528,8203.588789686788
530,8343.758165674699
532,8370.022355059145
534,8509.940227879188
536,8646.658572779368
538,8678.500975793188
540,8786.13152522354
542,8919.043016222246
544,9039.711730201425
546,9063.090867855472
548,9177.110893088353
550,9382.637481940463
552,9442.346031721234
554,9509.013937250878
556,9630.62413383103
558,9777.768874036807
560,9850.253113921995
562,9966.650495590402
564,10069.885386065369
566,10179.43909365106
568,10318.897764457317
570,10522.042725298605
572,10709.047175127027
574,10777.793315257873
576,10781.940188544033
578,10957.708796974837
580,11089.578202933868
582,11136.979755413444
584,11230.59487690624
586,11262.6319139984
588,11483.78716122827
590,11662.847464345916
592,11627.439028490295
594,11714.678730808479
596,12019.75011943823
598,12137.583802460967
600,12098.040799960789
602,12274.672891601947
604,12375.717952118011
606,12309.847117149195
608,12511.560022154386
610,12833.281802106434
612,12962.29852840128
614,12975.174943234213
616,13081.200157254167
618,13069.750606663718
620,13045.80715442203
622,13184.111612361017
624,13465.676307705158
626,13572.57751694497
628,13470.12878874857
630,13347.228974238615
632,13388.174189696969
634,13369.70582599974
636,13282.793482772282
638,13281.931630743657
640,13038.959473595303
642,12734.563093673676
644,12692.631288960543
646,12316.417653141563
648,11714.171113321263
650,11376.59203553252
652,10934.406101921828
654,10652.670855308806
656,10742.419377745355
658,8502.446278820942
660,7683.51036269028
662,7837.45538080379
664,6172.553191445885
666,6583.709525820376
668,6169.555212761344
670,6073.8446919005955
672,5942.15160011407
674,5962.445759758838
676,6062.37678860524
678,6021.192256895621
680,5953.863471088462
682,5941.504186901335
684,5881.95351363888
686,5899.664327359738
688,5985.989216983547
690,6012.005738337606
692,6113.089146234404
694,6158.506402476403
696,6275.295810643263
698,6428.5725246605925
700,6519.7089326629175
702,6653.508381753862
704,6807.181521971249
706,6765.3514107749625
708,6802.314864847633
710,6852.379251187065
712,6834.733497383225
714,6843.024671762607
716,6899.5854601355495
718,6893.982067272509
720,7015.305570168939
722,7166.231707752718
724,7090.617134460384
726,7246.221938770421
728,7593.036696270328
730,7674.639380114117
732,7828.500204201301
734,7948.1942685165
736,8208.678841900219
738,8335.916682376783
740,8500.353685710345
742,8608.881526117548
744,8715.16663653589
746,8863.249200661992
748,8920.525346707827
750,9017.28186046822
752,8975.688567745368
754,8891.808236298519
756,8799.418513283757
758,8776.299627250268
760,8629.956357958548
762,8497.334898246454
764,8424.844895920593
766,8356.613253688794
768,8356.172433408417
770,8428.18024183567
772,8568.336311302559
774,8780.181033882089
776,8949.77807116657
778,9119.13126837807
780,9411.747741959261
782,9385.968283356893
784,9656.352953467356
786,9742.620696255184
788,9936.699890757489
790,9957.564783987
792,9938.307952428979
794,10003.93277354215
796,10271.87599725034
798,10362.5376189648
800,10346.220853319197
802,10438.928280740834
804,10638.635450672395
806,10684.340853763999
808,10670.363139521014
810,10966.417777337789
812,10973.50507252351
814,10967.23218220022
816,10961.98064827261
818,10907.657685464037
820,10947.721017403592
822,10921.076333322808
824,10858.464272476618
826,10914.833698209852
828,10897.970741730553
830,10998.439197382635
832,10947.194379416358
834,10873.229040538556
836,11091.236367464775
838,10839.8351527444
840,10876.49502010454
842,10845.784444976776
844,10823.325315410168
846,10729.27380128624
848,10830.417096514127
850,10684.098394837225
852,10677.961625466194
854,10629.290314496086
856,10532.630837273684
858,10628.517315024352
860,10491.07196125318
862,10528.274091274197
864,10413.848312355074
866,10346.28779483059
868,10223.871502056396
870,10159.897803946384
872,10177.456268504851
874,9904.248440962347
876,9863.680439901002
878,9624.901109931185
880,9608.762580598965
882,9426.085999436476
884,9215.26855636096
886,9060.77608987544
888,8774.13799208922
890,8727.605716624354
892,8436.24704531266
894,8230.286913347574
896,7980.110829523452
898,7602.3719987452805
900,7403.206321386999
902,7059.300066610738
904,6594.75557532578
906,6296.633220991832
908,5953.598831918281
910,5560.638994070111
912,5187.571817447566
914,4745.8340131126615
916,4332.394462273568
918,4011.0572073386243
920,3598.342343904989
922,3200.5916660200487
924,2874.5202892216794
926,2571.7857535488406
928,2271.152638630843
930,2031.874662259405
932,1827.6470035722948
934,1660.6074328281939
936,1448.8904637290111
938,1326.4765718954286
940,1236.885545378151
942,1175.7748070455937
944,1062.9838717559817
946,1020.9672505697715
948,934.8041411730804
950,912.84058471094
952,852.7366843203444
954,810.4846565039427
956,764.6380622522853
958,714.4932935386731
960,677.9466412671659
962,612.1704450590014
964,573.6522238345775
966,518.9043748576628
968,473.51699827759654
970,442.359725545281
972,410.1789544036536
974,386.60388023587245
976,347.68041332313936
978,342.8363958282164
980,315.65369582220893
982,313.8985826235218
984,300.6646383816071
986,275.05535796584104
988,270.4202214780727
990,262.53232127429436
992,246.02229117658823
994,227.82758887708192
996,214.03225967264024
998,206.31707494518886
