wave,flux
336,32.37921487926797
338,41.70899548787051
340,53.831188925618136
342,59.21016428648447
344,76.08995555724083
346,88.28702545539919
348,106.82894529206611
350,122.48158000435892
352,129.8582202964629
354,145.93581828681513
356,154.2964239548964
358,165.89868599505297
360,180.56239942570153
362,202.24525151924124
364,204.52177388470406
366,225.5822814470116
368,257.766781104811
370,283.198184274779
372,322.42863648313875
374,347.22584138716866
376,397.5766659495821
378,467.4114326752402
380,558.5001572091212
382,659.5498560820595
384,764.1630610174357
386,875.9070953717048
388,943.9273034275827
390,996.4396234720958
392,1080.2039846305165
394,1225.3764230486736
396,1344.8588204108396
398,1507.5356801999412
400,1697.4940265315338
402,1851.191089203736
404,2026.3981623633158
406,2170.532108238904
408,2333.7101111127176
410,2502.9889255581397
412,2701.902300794996
414,2853.9488999831788
416,3046.0309688593056
418,3188.421275392941
420,3399.8906601785707
422,3496.899046022677
424,3708.634256292717
426,3969.603854285849
428,4194.488305195435
430,4349.666957671821
432,4730.238284163089
434,4815.7071104722945
436,4975.837632891032
438,5178.227503404535
440,5263.280038502513
442,5317.802657202769
444,5406.288771351147
446,5723.582697327279
448,5809.680437965922
450,6075.360099694208
452,6382.438597240916
454,6571.899501040555
456,6732.0319457727555
458,7080.792026395568
460,7322.197854332104
462,7613.066986988307
464,7945.309441114372
466,8102.643719421666
468,8460.374033967593
470,8628.264684983562
472,8935.703915656495
474,9487.741281537568
476,9706.273936650647
478,10305.927573973995
480,10954.640728124845
482,11559.058871105015
484,12680.854799519706
486,13448.667051143728
488,14757.480338662876
490,15636.458417879046
492,16757.33921491047
494,17346.53185108428
496,18162.416494796522
498,18469.4146171074
500,18169.78865763747
502,17919.379471550128
504,17401.993419774546
506,16859.58297538384
508,16232.606330612623
510,15661.068970988688
512,15413.71476372743
514,15082.378130741417
516,14778.735848571061
518,14605.20680420516
520,14632.64436730589
522,14621.065284403549
524,14775.91602087978
526,14792.67796964491
528,14970.208244682675
530,15093.193329553478
532,15122.160555690889
534,15292.169726245378
536,15351.69827673415
538,15659.50372337903
540,15949.677261405735
542,15928.439740640613
544,16246.91492192948
546,16368.000174493724
548,16708.95448297117
550,16838.853012762393
552,17049.86922460725
554,17220.19786458078
556,17546.670563578766
558,17733.762830647862
560,18155.392544731083
562,18408.5008569734
564,18460.765001486852
566,19006.364795680096
568,18948.50432604606
570,19329.205837275596
572,19486.693884853514
574,19707.96874253747
576,19861.725635948118
578,20179.55264770522
580,20315.545443370313
582,20442.52558446068
584,20829.04940111379
586,20938.95181408824
588,21286.116283235562
590,21647.5046832141
592,21705.652241963668
594,21773.300468890702
596,22038.98841320476
598,22240.298791265064
600,22453.393065873082
602,22473.3388498916
604,22584.607771803483
606,22850.9672388816
608,22991.51183595714
610,23349.944861608128
612,23371.052915437354
614,23266.842586542785
616,23562.220812277083
618,23548.453857199507
620,23627.213076084998
622,23983.1210401029
624,24181.426129401145
626,23900.597599407567
628,23638.592047303886
630,23707.034913115276
632,23709.20856314583
634,23703.589095308274
636,23593.289469302454
638,23136.07275866354
640,22571.308708631168
642,22098.72748158442
644,21674.15893646029
646,20922.786340527786
648,20215.89677973501
650,20030.189854816846
652,19307.530238790634
654,18076.074079268048
656,17273.405148149126
658,16407.2496070908
660,15220.244287928857
662,14196.43630962387
664,13394.348100980342
666,12638.049993232915
668,11719.641375716437
670,10865.998441048141
672,10586.62549211766
674,10853.455233082943
676,10960.525890775294
678,10897.493449325799
680,10722.449086478846
682,10740.279314743926
684,10702.690711191011
686,10656.940242053355
688,10671.909456930336
690,10741.838051277864
692,10833.202412445671
694,10852.302956200945
696,11036.914495554529
698,11296.600756287147
700,11456.974443894123
702,11514.25721365657
704,11891.558963636991
706,12229.214073435784
708,12209.59121129478
710,12455.135791147533
712,12381.151505714755
714,12554.220311832245
716,12531.860206387903
718,12459.72464860304
720,12574.969625472542
722,12530.077127538834
724,12722.15034374829
726,12654.867855449806
728,12905.443461235383
730,13031.298446448383
732,13091.322299691969
734,13230.226903508059
736,13447.70551415609
738,13363.323978149705
740,13487.465440721895
742,13555.715756004676
744,13758.367130993058
746,13653.553068652318
748,13425.551775398531
750,13418.551995560994
752,13470.539318013913
754,13324.192839575895
756,13260.686262324565
758,13080.923571201134
760,12868.411986779127
762,12656.679173540828
764,12807.393346293826
766,12753.716013353487
768,12626.944637362865
770,12988.373359766867
772,13119.879629173984
774,13701.541793596914
776,13871.293782679977
778,14041.312137836088
780,14356.295382042561
782,14584.662542786135
784,14825.075438380749
786,14731.232411240635
788,14828.211655163654
790,14757.783965144139
792,15020.738626003205
794,14913.394054033317
796,14943.728277405555
798,15052.158397428735
800,15143.84743392697
802,15199.954975576591
804,15189.638321543338
806,15214.99218059109
808,15054.835225245268
810,15069.25725652766
812,15117.817946455352
814,14825.052763546795
816,14971.475126261905
818,14787.16134815334
820,14800.158359404162
822,14869.080800545442
824,14752.041059477777
826,14696.527189975419
828,14823.396796907802
830,14752.954120528024
832,14790.653450137
834,14717.485208736356
836,14710.069785113716
838,14851.553467811505
840,14546.913479744695
842,14653.335146849506
844,14378.840795201386
846,14480.377622829963
848,14190.450094715869
850,14408.526169806659
852,14200.618478121898
854,14152.65934889744
856,14035.159787182649
858,14143.7633528265
860,13923.249630372258
862,13828.129848584198
864,13790.621705695714
866,13716.215080996402
868,13487.356664170944
870,13579.769611961487
872,13219.72239422793
874,13231.119301003622
876,13026.051018966953
878,13030.186781425855
880,12910.043589972973
882,12749.379313482872
884,12509.266707108716
886,12367.991327543306
888,12187.333766549184
890,12032.669131268078
892,11694.249118663589
894,11419.984828356797
896,11122.376044237935
898,10733.846185872953
900,10534.857526502927
902,10116.23501795708
904,9457.971780859127
906,9207.999298071394
908,8629.492897159163
910,8105.183424564276
912,7584.134332544192
914,7059.142521046671
916,6345.462954814013
918,5964.086769061271
920,5286.275123697315
922,4742.106781665862
924,4304.769422226003
926,3750.255626960347
928,3420.1245957963633
930,2944.5980043848504
932,2661.051406268005
934,2371.900650565191
936,2133.6407008173796
938,1887.0621290197894
940,1809.5804633912724
942,1649.9921209061483
944,1557.7782105226856
946,1428.5229561358474
948,1353.499906917049
950,1301.906259806643
952,1211.7367727415542
954,1172.7814793667314
956,1095.025442786391
958,1015.7048565253135
960,959.3445966410109
962,884.120070067382
964,810.0530920916817
966,746.3359096759277
968,680.4655665784912
970,647.6889834972806
972,593.8156741757753
974,550.4276845360927
976,544.3768434396208
978,486.4904545518883
980,471.1830241919075
982,450.0510303605267
984,414.55888951428693
986,402.70519409719026
988,383.17901113972306
990,363.2485646781471
992,340.82665752691
994,322.49541866998675
996,305.6994411339862
998,290.4396031285023
