wave,flux
579.7349067000001,2.940941090442545
580.4012016,0.7273970291618852
581.0690204,87.60210660868549
581.7383737,174.8897983946285
582.4092722999999,259.2460561289109
583.0817268999999,364.04013053300935
583.7557482999999,457.2912531514047
584.4313472,551.7600768852011
585.1085343999999,661.0262591117905
585.7873207,770.3629869590821
586.4677171,783.1035237299898
587.1497343999999,803.4824069896938
587.8333835,814.2069743263257
588.5186752999999,825.5826664439555
589.2056208,845.6770157483766
589.8942308999999,852.4616121552141
590.5845168,874.0335656648166
591.2764894,889.7397061433823
591.9701597999999,910.2253362710156
592.665539,924.7292468716403
593.3626383,942.9039260443612
594.0614688,948.4953014402763
594.7620416,970.04112804752
595.4643679,983.9841410298536
596.1684591,998.6554953712513
596.8743264,1026.5541326858418
597.5819809999999,1053.2281974801117
598.2914344,1057.123612126751
599.0026978,1077.9871790309776
599.7157827000001,1089.4553291329469
600.4307005,1093.1271785269648
601.1474627,1071.9666905059653
601.8660807,1050.9505062772475
602.5865660000001,1040.0159754554818
603.3089302999999,980.3118543698912
604.0331851,931.4462069929497
604.7593419,861.6512706245283
605.4874126,822.9168945224545
606.2174086,769.4359432439521
606.9493418,756.9313701998175
607.6832239,772.3275895330693
608.4190667,797.0857904062336
609.1568819,890.1502540433869
609.8966815,986.7837375927555
610.6384772000001,1108.3240677130682
611.3822811000001,1254.3612455366024
612.128105,1361.7891214487465
612.8759610000001,1503.726084585531
613.625861,1589.7360267524805
614.3778171,1663.0385654063339
615.1318413,1716.107857291667
615.8879458,1685.1022685829455
616.6461426,1651.3306692564724
617.4064441,1613.0707310619464
618.1688624,1581.8736469350476
618.9334097,1548.7416520705872
619.7000982000001,1499.9456199594906
620.4689404000001,1571.958316421556
621.2399486,1557.0878029035125
622.0131351,1641.5545483476408
622.7885123,1697.1293552055586
623.5660927,1817.506314741908
624.3458887999999,1917.9386806042507
625.127913,1979.996679459639
625.9121779,2090.5841475452285
626.698696,2188.35783683432
627.48748,2323.347219121453
628.2785426,2541.079334677443
629.0718962999999,2832.0206063975293
629.8675538,3196.785897683468
630.6655279,3634.794868440265
631.4658314,4162.291571265963
632.268477,4809.652509146801
633.0734776,5502.80920718944
633.880846,6206.551151203263
634.6905951,6957.319545940421
635.5027378999999,7691.489270431834
636.3172871,8606.816202736183
637.1342559,9243.885795713184
637.9536572000001,10201.083813147368
638.775504,11192.753779904551
639.5998095,12497.316927915208
640.4265866000001,13736.731098583978
641.2558486,15860.413425222674
642.0876085,18481.574531816022
642.9218795,22059.015107702755
643.7586747,26950.281555502963
644.5980075,33730.405167541765
645.4398911000001,42559.90385236518
646.2843386,54289.61284271423
647.1313635,69424.59253305057
647.980979,88022.02543495414
648.8331985,111041.29152832444
649.6880352999999,137315.24262059288
650.5455028,166228.12741498876
651.4056144,197364.98086194613
652.2683836,228533.04557478733
653.1338237000001,258884.6050807761
654.0019482999999,287789.0875317579
654.8727708,312796.4039208154
655.7463047,333038.7771399162
656.6225636,347981.935718701
657.501561,356576.5873582096
658.3833105,358879.8530007315
659.2678255,355149.3786208139
660.1551197000001,345221.77975300065
661.0452068,328955.5331377031
661.9381002,306956.9217452171
662.8338137000001,280406.89681721036
663.7323607999999,250970.6381812495
664.6337553,220681.8359995997
665.5380107000001,190729.39985204907
666.4451407,163389.8983458503
667.355159,139681.64090369846
668.2680793,120555.44930689131
669.1839152000001,106987.18606055237
670.1026805,98095.71732414595
671.0243889,93675.42224211515
671.949054,92344.28728435347
672.8766895,93210.60869342195
673.8073092,94128.09188826168
674.7409267,94726.58898038528
675.6775557999999,93896.9676830026
676.6172101,91823.1566276367
677.5599033,88364.4037870455
678.5056492000001,83638.83140209236
679.4544612999999,78147.899051974
680.4063535,72658.19113434544
681.3613392999999,67459.211897682
682.3194324,63135.83580083307
683.2806465,59771.92480533339
684.2449952000001,57539.74750090414
685.2124921,56327.640646630876
686.1831509,55939.35553566824
687.1569850999999,56041.06466816455
688.1340083,56364.48341359383
689.1142341,56598.92025391063
690.097676,56779.39995792848
691.0843474999999,56649.69071429168
692.0742622,56397.44473649309
693.0674334,56108.91900637378
694.0638748,56038.57582524693
695.0635996,56388.47895837995
696.0666212,56906.69225930204
697.0729531000001,57981.56906267474
698.0826086,59658.615539096536
699.0956008999999,61501.66772799253
700.1119432999999,63756.137356737614
701.1316491,65924.46140744773
702.1547314,67973.08266502025
703.1812034,69933.87425826327
704.2110782000001,71389.16011121697
705.2443688999999,72528.56957152691
706.2810885,73315.09427972688
707.3212499,73717.48619594496
708.3648661000001,73905.39694850486
709.41195,73856.88757290918
710.4625143999999,73678.8932568367
711.5165721,73383.25617539912
712.5741357,73138.07627416568
713.6352181,72910.4307873192
714.6998317000001,72715.11577750678
715.7679891,72633.11167978357
716.8397027999999,72668.04994413815
717.9149852,72891.27196344192
718.9938487000001,73242.81691804582
720.0763055,74003.86487222504
721.162368,75054.85760968585
722.2520481,76440.79539443304
723.3453581,78045.09652685937
724.4423098,80040.78850874526
725.5429153,82349.26777759513
726.6471863,84968.96857574995
727.7551346,87847.17779898214
728.866772,90644.86792412167
729.9821099,93859.26092051543
731.1011599,96830.01970983736
732.2239335,99948.5560404322
733.3504419,102913.21702301053
734.4806963999999,105951.0194391456
735.6147081,108574.07070334676
736.7524882,111392.93475003725
737.8940474,113753.47390629086
739.0393967,116183.86900447651
740.1885467999999,118306.42030262135
741.3415084,120492.0415843248
742.498292,122697.37637466627
743.658908,124831.29708854068
744.8233667999999,126860.97372388025
745.9916785,128798.13463214511
747.1638532000001,131226.77054859704
748.3399009,133155.67644503215
749.5198315,135038.38787362725
750.7036546,137188.28909357663
751.89138,138801.5261831899
753.0830171,140092.49106848694
754.2785752999999,141162.81837747112
755.4780638,141772.26147718358
756.6814917,142345.39543184047
757.8888678999999,142216.8129995283
759.1002014999999,141778.2475851332
760.3155009,141157.85853332505
761.5347749,140625.2814655668
762.7580318,139742.58763095827
763.98528,139121.1913221043
765.2165276000001,138677.5059677906
766.4517825,138431.25982778298
767.6910527000001,138967.98344996633
768.9343458999999,139752.95279460517
770.1816697,141346.5782218007
771.4330313999999,143122.48632753757
772.6884382999999,145768.46187436712
773.9478975,148467.29144072096
775.211416,152198.65643088508
776.4790005,155889.84221867664
777.7506578,159581.26693842394
779.0263942,163945.6958726344
780.3062162,167923.17197636224
781.5901297,171824.01878018535
782.8781409,175616.24752248538
784.1702554999999,179642.91014143347
785.4664793,183720.9022828336
786.7668176,187588.5248633387
788.0712758,191806.16426677463
789.3798591,196449.3176361017
790.6925722999999,201459.6363016112
792.0094204,206858.98720212246
793.3304079,213800.91631655066
794.6555392000001,221229.27586708879
795.9848187000001,230113.70291939896
797.3182504,240181.36603739878
798.6558382999999,251005.38468231488
799.9975861,263848.14854793326
801.3434973,277230.7120769269
802.6935752999999,291317.1258809457
804.0478232999999,305645.4612811353
805.4062443,319099.7908957913
806.7688411,332111.8554952056
808.1356164,344158.8945618333
809.5065726,354019.2558457729
810.881712,361665.7428234442
812.2610367000001,367759.62060543057
813.6445485,372387.14734333
815.0322493,374627.054834774
816.4241404,376712.9795497399
817.8202233,377657.6791555615
819.2204991,377460.68373978813
820.6249687999999,377569.3231901311
822.0336331,377517.5153467232
823.4464925999999,377285.58890231187
824.8635477000001,377147.589411493
826.2847987,377875.40444720094
827.7102456,377540.82635665656
829.1398882,377033.5545071871
830.5737261,377814.9429908069
832.0117589,377564.84504175227
833.4539857000001,377215.6479432487
834.9004057999999,377726.26916355884
836.3510179,377370.0009991083
837.8058209,377507.34625640203
839.2648132999999,377426.7321670029
840.7279934000001,377774.4396911975
842.1953594,378004.2797630704
843.6669092,377402.91864920635
845.1426408,377428.10248845886
846.6225517000001,377713.63329991256
848.1066392999999,377803.82090104354
849.5949009999999,377514.8796504214
851.0873337999999,377474.03337600594
852.5839347000001,377207.89879874047
854.0847002999999,377411.7267489907
855.5896273,377909.8224415857
857.0987119999999,377677.9472437697
858.6119507000001,377701.59009130095
860.1293393999999,377396.8497322521
861.650874,377789.2118685641
863.1765502000001,377791.1818923054
864.7063635,377617.11291588016
866.2403094,377495.4563199946
867.778383,377579.51789096225
869.3205793999999,378007.6043207538
870.8668935000001,377455.4321913965
872.4173199999999,377055.76815188135
873.9718536,378312.09436448046
875.5304886,377184.9882555672
877.0932193,377184.571855141
878.6600399,377915.9604344007
880.2309443,377513.9592724442
881.8059264000001,377656.5319288682
883.3849798,377556.53476807656
884.9680981,377393.1855024404
886.5552747000002,377694.1395147147
888.1465029,377590.7213869257
889.7417757000001,377608.6715735218
891.3410862,377747.7883065617
892.9444273,377594.35624868376
894.5517916000001,377571.7474690781
896.1631719000001,377015.1472799489
897.7785605,375517.657637669
899.3979498,371912.5127213683
901.0213321,366315.92666348827
902.6486994999999,358610.2320484422
904.280044,347139.3915949328
905.9153574999999,332333.8566598002
907.5546319,314184.67376773123
909.1978586000001,293891.98145143245
910.8450295,271272.002445483
912.4961357999999,247759.54838089022
914.1511691,224748.94623131034
915.8101205,203329.24163568547
917.4729812999999,183042.5917257245
919.1397426000001,164948.84269190874
920.8103953,149404.15220713796
922.4849303,136846.73350447396
924.1633386,126315.18708706953
925.8456108999999,117772.47703262679
927.5317377999999,110442.66615277596
929.2217099999999,104875.08908396939
930.9155178999999,99797.8450699418
932.6131521,95177.98749176887
934.3146027999999,91126.16823900449
936.0198606,86935.17702438639
937.7289155,82807.63403579961
939.4417579,78638.68781008584
941.1583778999999,74605.4434424364
942.8787656,70155.80020756662
944.6029108999999,65691.59285584197
946.3308041000001,61289.66728749004
948.0624349,56839.87163063008
949.7977933,52699.12026240182
951.5368692,48606.07216638016
953.2796523,44895.3117047911
955.0261327,41515.36198203448
956.7762999,38564.85717667477
958.5301437,35840.05350563118
960.2876538999999,33551.164082157884
962.0488201,31681.673740928345
963.813632,30081.505332079232
965.5820792999999,28596.41912787299
967.3541517000001,27457.44614653553
969.1298386,26311.27567744603
970.9091298000001,25327.93150693304
972.6920149,24399.15148636841
974.4784835,23470.89657935209
976.2685251,22529.00946481469
978.0621292999999,21664.07359378988
979.8592858999999,20621.564954736208
981.6599843,19664.37833448881
983.4642142000001,18639.259225291178
985.2719651000001,17693.81903552645
987.0832268999999,16721.205188752043
988.897989,15832.53590344965
990.7162412,15038.988017403883
992.5379731,14254.5275653408
994.3631744999999,13611.267687677137
996.191835,13013.531922716067
998.0239445000001,12465.237344304824
999.8594926000001,11946.167144839417
1001.6984689999999,11506.922829853309
1003.540864,11085.895015734544
1005.386668,10661.459781425498
1007.235869,10177.990094131252
1009.0884580000001,9770.82558900445
1010.944426,9308.92916039227
1012.8037619999999,8842.54994138933
1014.666456,8401.233425657372
1016.532498,7917.9833408764625
1018.4018779999999,7559.7969737033645
1020.2745880000001,7176.11492917466
1022.150616,6863.631847729156
1024.029953,6515.945356979196
1025.912591,6252.824422252931
1027.798518,6014.775415140854
1029.6877259999999,5763.2403405945315
1031.580205,5503.5890363215185
1033.475945,5305.086157187092
1035.3749380000002,5085.521189649403
1037.277175,4865.6282912551205
1039.1826449999999,4662.656992090546
1041.09134,4435.105230569965
1043.003251,4230.541252324738
1044.9183679999999,3993.778168674829
1046.836683,3808.9102865639916
1048.758188,3560.454826501335
1050.682872,3363.688350598243
1052.6107279999999,3143.106650505497
1054.541747,2927.3862975421684
1056.4759210000002,2715.5047525743994
1058.41324,2467.7844336011403
1060.353697,2262.9690214128977
1062.297282,2036.44552800775
1064.243989,1812.066743846304
1066.1938089999999,1631.2768517347174
1068.146734,1404.914370086102
1070.1027550000001,1224.990259610223
1072.0618650000001,1015.3738861051885
1074.024056,854.7737869989157
1075.989321,698.1620015026032
1077.957651,547.092926233231
1079.92904,409.4696073077348
1081.9034800000002,314.1928028909838
1083.880963,219.4608581852017
1085.861482,116.03752223956265
1087.8450300000002,89.94083308257608
1089.8316,48.589559714389345
1091.821185,37.121882702871616
1093.8137789999998,14.56203635459054
1095.809373,-6.055782893661287
1097.8079619999999,-5.45356089604838
1099.809539,-2.6107291548359464
1101.814098,-0.8668151146290848
1103.821631,3.3923813802644487
1105.832134,-2.660546328756421
1107.845599,6.511314468465272
1109.86202,4.75766544026869
1111.881392,-3.5011851788624124
1113.903708,2.9403851076626952
1115.928963,1.803831175721189
1117.95715,-3.8064377316964415
1119.988266,-3.361742832720158
1122.022303,0.2631860847092992
1124.059256,0.4714983346745592
1126.0991199999999,-2.3992944151212003
1128.14189,-1.040805306195265
1130.187561,3.0575261167190204
1132.236128,-1.5600357756543348
1134.287585,-2.364696771218432
1136.341929,-1.5491107765718974
1138.3991529999998,1.6077552083975215
1140.4592539999999,1.6853610563921495
1142.522228,1.4468949222823084
1144.588069,-5.022210961646612
1146.6567730000002,-0.2116890906124955
1148.728337,2.5195548941149157
1150.802756,0.41839443727436987
1152.880025,3.0975835541432746
1154.960142,2.9427867504171314
1157.043103,1.1230109562528583
1159.128903,-3.108580883038361
1161.217539,-0.3249314384047687
1163.309007,-2.2655967743689933
1165.403305,0.47076212289488206
1167.500429,2.36416484379987
1169.600375,1.587577289565382
1171.703141,0.22136639360549634
1173.808724,1.964661326642924
1175.9171199999998,3.1328467144446286
1178.028327,3.5985356598198064
1180.142342,4.615303858430134
1182.2591630000002,1.802888470671424
1184.3787869999999,0.12628263118152355
1186.501211,1.233915268856732
1188.626434,-0.13042854380659616
1190.754453,1.5089251865045623
1192.885266,0.7742862594192763
1195.018872,-0.19801618578489474
1197.155267,0.03782208573454776
1199.294451,2.3415789659100845
1201.436421,3.4311929003327606
1203.581177,-3.4049090909563913
1205.728716,-0.4250566133165078
1207.879037,0.3740835058931346
1210.0321390000001,-0.5458310385152512
1212.1880199999998,1.9693397243046908
1214.34668,-1.4323710450864853
1216.508117,1.369679151581967
1218.67233,-0.9246080456145532
1220.839319,-4.98880208536734
1223.009083,-0.5666916910263106
1225.1816210000002,1.899429031223952
1227.3569320000001,-2.043402522493829
1229.535016,-0.5900604783477238
1231.715873,2.140131623895277
1233.8995029999999,1.2841695552805876
1236.0859039999998,0.26914128886075145
1238.275078,3.0743469552135587
1240.467024,-2.215591624204255
1242.6617410000001,-0.4468838354052818
