wave,flux
1817.164934,-4.8522539177887225
1790.1022050000001,-6.314735963254143
1763.812741,3.0128925606470647
1738.2646949999998,47.50956322565768
1713.427949,924.2062854034137
1689.273995,2686.728421915607
1665.7758310000002,5303.138715415736
1642.907862,8808.323644424238
1620.64581,13131.654685930198
1598.9666300000001,18348.81990081816
1577.8484310000001,24383.443182518287
1557.270407,31252.79341259353
1537.212767,37357.410160419066
1517.65668,42826.57222004219
1498.5842089999999,47543.51270162961
1479.978265,51572.60222945928
1461.822555,54934.931739252606
1444.101535,57516.918258472695
1426.800368,59475.83945192843
1409.904887,60687.91916118079
1393.401553,61951.61263037834
1377.2774220000001,63212.81523412583
1361.520115,64446.76926830975
1346.117782,65774.6153211767
1331.059081,67048.12685703019
1316.3331449999998,68294.85392460975
1301.92956,69635.10897113943
1287.838342,70943.13432467508
1274.049912,72266.68982376809
1260.5550779999999,73626.83058304917
1247.345017,75079.99597390389
1234.4112519999999,76558.46771504226
1221.74564,78139.66534205135
1209.340352,79710.52780075453
1197.187859,81464.39970079466
1185.28092,83183.90098663197
1173.612564,84898.54601457105
1162.1760800000002,86692.22012001638
1150.9650060000001,88477.2534668152
1139.973115,90239.39110722982
1129.194406,91926.1685606502
1118.623093,93586.71986866876
1108.253594,95272.92909919843
1098.0805269999998,96906.95827135006
1088.098695,98682.32467204994
1078.303081,100597.33283891928
1068.688841,103053.08233094137
1059.251295,106046.4315775376
1049.9859199999999,109892.64868879279
1040.8883449999998,114547.94473486785
1031.9543429999999,120203.3957517424
1023.1798259999999,127015.378557066
1014.5608390000001,134523.61779741026
1006.0935529999999,143054.37811714032
997.774265,151908.37663207285
989.5993858999999,161118.4348345006
981.5654412999999,170169.90016991485
973.6690651,178802.46568432887
965.9069952,186716.7448327388
958.2760697000001,193565.76279772696
950.7732231000001,199328.16580936406
943.3954827,203837.51072644157
936.1399648,207328.72110298407
929.0038716,209551.2776535116
921.9844879000001,211252.9888498628
915.0791782,212661.02675154703
908.2853836000002,213601.6161349827
901.6006193,215491.1574837113
895.0224714,218796.03752835546
888.548595,223276.46627452684
882.1767113,230335.37054499122
875.9046055,240011.66471627212
869.7301242999998,252434.98177198888
863.6511742999999,268858.47290598537
857.6657193,290351.85459286236
851.7717787,319260.2075572881
845.9674256000001,354851.3798053696
840.2507849,397360.5590404956
834.6200316000001,449036.9159983422
829.0733892000001,508818.6896303415
823.6091279,573945.5031249026
818.2255633999999,646908.4781276786
812.9210552000001,722101.686216917
807.694005,795891.4491148898
802.5428559,867995.7597918884
797.4660904,939967.3967801344
792.4622299,1014771.4198310366
787.5298327,1097109.56733876
782.6674933999999,1194049.2968600637
777.8738417999999,1316496.7401835695
773.1475413,1478887.429384467
768.4872882999999,1686372.1080111815
763.8918112000001,1944377.9410818848
759.3598692,2260087.348410305
754.8902515999999,2621687.1933047995
750.4817767999999,3020656.9450223977
746.1332914,3438081.750082022
741.8436694000001,3860191.014725349
737.6118116,4251327.230615822
733.4366444,4610226.111153511
729.3171195,4923148.011375766
725.2522127999999,5180490.739998388
721.2409241,5380095.7902529985
717.282276,5528660.645269052
713.3753136,5639016.525261946
709.5191037000001,5722889.208926117
705.7127343,5791515.765469188
701.9553139,5849221.223428904
698.2459709,5898994.678876333
694.5838534,5937815.246636494
690.9681281000001,5969496.296895257
687.3979803,5996219.819713417
683.8726131,6021473.594287889
680.3912472999999,6035394.072148624
676.9531202000001,6043508.986544837
673.557486,6039861.955202717
670.2036149,6039644.259145317
666.8907926,6041457.69978896
663.6183202999999,6040498.227621008
660.3855139,6041389.301120808
657.1917038,6042762.340974272
654.0362346,6041941.305700802
650.9184646000001,6041534.894426298
647.8377654,6043282.0280392
644.7935217999999,6041503.667010821
641.7851312999999,6043505.889357386
638.8120038,6039750.322727097
635.8735614,6042219.042713893
632.9692378999999,6042483.234595077
630.0984786,6041116.8006397085
627.2607402000001,6040937.487648542
624.4554901,6040369.428524847
621.6822068,6041359.0379440235
618.940379,6041219.450584365
616.2295054,6041265.262000738
613.549095,6041409.505569193
610.8986664,6041303.903223587
608.2777476,6041722.417397485
605.6858758999999,6041478.970809693
603.1225977000001,6041078.57262838
600.5874682,6041319.841708981
598.0800512,6041556.831295399
595.5999188999999,6041532.735035048
593.1466518,6041549.409882363
590.7198384999999,6040892.880930318
588.3190752,6041490.243201283
585.943966,6041392.377419122
583.5941226,6041286.096862126
581.2691637,6041161.777549715
578.9687155,6041256.861263112
576.692411,6041154.624070805
574.4398902,6041749.470990588
572.2107997,6041295.026744236
570.0047927,6041452.83637212
567.8215287,6041406.790873707
565.6606737000001,6041595.773163782
563.5218996,6041593.326278286
561.4048845,6041243.138283278
559.3093121,6041070.23367752
557.2348721,6041026.357911485
555.1812597,6041325.466335136
553.1481756000001,6041711.644637434
551.1353259,6041352.71294538
549.1424218999999,6041453.460070755
547.1691801,6041415.431604767
545.2153222000001,6041397.127488015
543.2805745000001,6041468.5903257625
541.3646685,6041415.413250812
539.46734,6041930.373657776
537.5883299,6041628.437861283
535.7273833,6041427.934374381
533.8842498,6041446.49931438
532.0586836,6041386.925326533
530.2504428000001,6040890.617188658
528.45929,6041305.639053759
526.6849915,6041170.956811346
524.927318,6041379.405104535
523.186044,6041421.965955027
521.4609475999999,6041578.3277878985
519.7518110000001,6041587.284666132
518.0584200000001,6041567.779617001
516.3805639,6041334.258763162
514.7180356,6041498.49035667
513.0706316000001,6041468.345530477
511.43815149999995,6041422.622435108
509.82039860000003,6041545.579021469
508.2171791999999,6041488.328819578
506.628303,6041504.95126729
505.05358269999994,6041445.18616963
503.4928341,6041541.076022168
501.9458762,6041153.69399262
500.41253059999997,6041852.677094865
498.8926222,6041083.646814028
497.3859785,6041500.584661411
495.89242989999997,6041092.635507605
494.4118094,6041472.854219445
492.943953,6041593.339722706
491.488699,6041028.964740627
490.04588839999997,6041497.441321816
488.6153648,6041581.6676421575
487.19697429999997,6041662.647554512
485.7905654,6041339.813137684
484.39598889999996,6041189.376595645
483.01309800000007,6041930.710598038
481.64174840000004,6041546.795713442
480.28179789999996,6041955.074264228
478.93310639999993,6041585.9882810665
477.59553619999997,6041197.923943647
476.2689517,6041194.352314186
474.9532192,6041384.115867782
473.6482074,6041532.467005958
472.35378679999997,6041413.515957799
471.06982989999995,6041035.835122606
469.79621110000005,6041609.271137715
468.53280700000005,6041029.083007015
467.2794956999999,6041842.5099545065
466.0361575,6041398.30289942
464.80267410000005,6041595.621138605
463.5789295,6041385.35147965
462.364809,6041226.528728631
461.1601998,6041419.619723962
459.9649909,6041598.4325812915
458.7790727,6041237.479991322
457.6023374,6041552.721665684
456.4346788,6041749.900001795
455.2759921,6041393.677824581
454.12617439999997,6041218.147875069
452.9851239,6041830.489307502
451.85274060000006,6041651.949137088
450.7289258,6041297.522071008
449.6135822,6040848.206166628
448.5066141,6041301.143020962
447.407927,6041765.142959467
446.317428,6041107.558226802
445.23502520000005,6041366.082906786
444.1606283,6041123.830235656
443.0941482,6041214.69923762
442.03549699999996,6041124.253735809
440.9845882,6041595.993507615
439.9413364,6041795.5332692005
438.9056575,6040985.325847286
437.87746860000004,6041155.819717446
436.85668780000003,6041324.678581612
435.8432345,6041504.065957114
434.83702930000004,6041580.063942293
433.83799369999997,6041585.455144487
432.84605039999997,6041209.641639361
431.8611232,6034029.505344448
430.8831369,6014373.3018909525
429.9120175,5977044.40570573
428.94769169999995,5920406.2925774
427.9900874,5843109.472852654
427.03913370000004,5744620.135402692
426.0947602,5625840.278517899
425.1568978,5488019.508716046
424.22547829999996,5348097.689835122
423.3004343,5219649.054090538
422.3816994,5115508.01739886
421.4692081,5044440.702585781
420.56289569999996,5013499.8981753625
419.66269850000003,5024080.775106448
418.7685535,5076537.809006996
417.8803987,5166104.490726882
416.9981727,5282161.77218333
416.12181519999996,5412835.585133634
415.25126639999996,5546018.146586875
414.38646760000006,5672530.416515995
413.5273605,5781054.738823075
412.673888,5868839.08455652
411.8259934,5935645.45060752
410.9836208,5983426.322727944
410.14671519999996,6014764.260857396
409.3152221,6032252.142974656
408.48908789999996,6039689.025865957
407.66825960000006,6041778.870405445
406.8526847,6041283.296542694
406.0423117,6041646.041844922
405.2370896,6041788.231615282
404.43696800000004,6041547.48217721
403.64189730000004,6041104.602762763
402.8518283,6041608.183744907
402.0667126,6040973.773721851
401.28650239999996,6041680.10310075
400.5111505,6041614.211074825
399.7406101,6041308.348268845
398.9748353,6041860.169598109
398.2137806,6041265.964060347
397.457401,6041397.515527586
396.7056521,6041451.020448143
395.9584903,6041470.416442933
395.2158722,6041246.401501928
394.4777551,6041522.051786018
393.7440968,6041263.937135489
393.0148555,6041633.539023091
392.2899901,6041428.479290332
391.56946,6041521.540275304
390.853225,6042397.295166068
390.1412452,6041084.176918875
389.43348169999996,6041890.30138649
388.7298955,6040958.074730175
388.03044839999995,6041222.612883902
387.3351027,6041322.2953758435
386.6438209,6032678.026707027
385.95656610000003,6002883.640306367
385.2733019,5940633.908976889
384.5939922,5838127.240957917
383.9186014,5687906.814647263
383.2470943,5486436.399529179
382.5794362,5232013.363377458
381.9155926,4921506.4744996885
381.2555296,4570396.297078904
380.59921360000004,4205347.667612622
379.9466115,3844418.0761121577
379.29769039999996,3506779.835469738
378.652418,3202410.1258923383
378.0107622,2940581.0069815493
377.37269130000004,2726200.015334066
376.73817410000004,2562445.2791620367
376.1071796,2442378.439919885
375.47967719999997,2353823.762620727
374.8556368,2287347.6581343673
374.2350283,2233360.92280976
373.6178223,2187787.1389823454
373.0039896,2145518.1735968217
372.3935012,2104862.9278896577
371.78632860000005,2066175.8635682976
371.1824436,2029594.0748498498
370.5818182,1996387.31065112
369.98442489999996,1968453.696157967
369.39023629999997,1947646.341417289
368.7992255,1935151.575665417
368.2113658,1932490.0581012482
367.6266307,1940148.642964006
367.0449943,1956904.82169677
366.4664305,1983042.8053807288
365.89091410000003,2016859.9679203338
365.3184196,2055837.4109343986
364.7489221,2099166.154549122
364.18239689999996,2143913.409101611
363.61881960000005,2188230.581752336
363.058166,2230571.825145328
362.50041219999997,2269404.114695486
361.94553460000003,2304037.987020039
361.3935098,2333111.93102302
360.8443147,2356020.8483448024
360.29792630000003,2372723.2276941286
359.754322,2382725.3180707027
359.2134795,2385525.070123416
358.6753765,2380359.7396163447
358.1399912,2367204.728534323
357.6073018,2345831.638714589
357.077287,2316270.4442939004
356.5499253,2278199.482043951
356.025196,2232076.041416374
355.50307799999996,2178420.770634009
354.983551,2118476.652255735
354.4665945,2053195.5486164868
353.95218839999995,1983223.0458749009
353.4403127,1909976.1156463518
352.9309478,1834390.295644457
352.42407410000004,1757261.5824113127
351.9196722,1679307.374904862
351.4177232,1601291.86787598
350.91820789999997,1523352.8595442262
350.4211078,1445888.1500007613
349.9264043,1368921.6591165634
349.434079,1292669.516023781
348.9441137,1217314.484669683
348.45649060000005,1143197.3288294647
347.97119169999996,1070016.25970802
347.48819960000003,998732.1082285795
347.0074967,929398.0585368164
346.5290657,862312.0540801614
346.0528897,797911.2154623731
345.5789517,736447.4230400167
345.1072349,678123.0120281754
344.6377228,623288.0475474723
344.17039889999995,572221.6669861696
343.70524710000007,524682.2770574101
343.24225110000003,480392.6898062354
342.7813952,439250.39620420587
342.32266339999995,401137.8048367913
341.8660403,366010.67767921096
341.4115102,333436.58554078965
340.959058,303503.3407206661
340.5086685,275905.22218991484
340.06032660000005,250546.4681335193
339.6140175,227660.74082496852
339.1697264,207421.53239958023
338.7274388,189604.0772783424
338.28714019999995,173972.860418184
337.8488164,160390.03394143895
337.41245310000005,148581.27958151465
336.9780363,138119.92119044467
336.5455522,128759.66614948356
336.114987,120109.31391859989
335.686327,111939.07535638947
335.2595588,104122.18361820118
334.834669,96595.54071759548
334.4116443,89264.55082775556
333.9904716,82289.66814363914
333.57113799999996,76058.83723209526
333.1536305,70620.72491456124
332.73793639999997,65850.32447559673
332.32404310000004,61685.84204445965
331.91193799999996,58198.98356787553
331.5016088,55249.6661294153
331.0930432,52823.13829111274
330.6862289,50783.01719607546
330.281154,48886.34720218599
329.8778065,47058.792625540984
329.47617460000004,45318.688217538045
329.07624649999997,43655.58080659228
328.6780106,42109.19313411612
328.2814555,40566.2853945136
327.88656960000003,39088.660161923035
327.4933418,37607.084908102006
327.1017607,36221.931334779816
326.7118154,34852.6397651612
326.32349480000005,33477.098494142636
325.93678789999996,32178.26433100677
325.5516841,30876.003290156117
325.16817260000005,29658.830160331603
324.7862428,28509.363387354
324.40588419999995,27425.7230554722
324.0270864,26387.526857214234
323.649839,25455.69942579458
323.2741319,24546.537902722986
322.8999548,23708.952571374062
322.5272977,22908.305506967696
322.1561508,22154.45087997522
321.786504,21409.79757981138
321.4183476,20657.46812504889
321.0516719,19948.6287638455
320.6864673,19226.373802133232
320.3227243,18510.276377454644
319.96043330000003,17781.765705357546
319.5995851,17070.100455523807
319.2401704,16385.2174347543
318.8821799,15684.151502338918
318.5256045,14997.163490259274
318.1704352,14301.038469461191
317.8166631,13617.855597863081
317.4642791,12920.76088973642
317.1132746,12263.265229508615
316.76364069999994,11590.42599771186
316.4153688,10917.128473420367
316.06845039999996,10253.66725183756
315.72287689999996,9610.490029445287
315.37863980000003,8970.645411380427
315.0357308,8352.39405288302
314.6941415,7762.757297616279
314.3538639,7180.4121196203305
314.0148896,6620.218614214876
313.6772106,6107.509382140019
313.3408189,5605.226353406115
313.00570639999995,5132.024539152148
312.67186549999997,4683.752824468634
312.33928810000003,4266.288724416144
312.0079665,3876.255955872051
311.6778931,3518.0314861382594
311.34906010000003,3161.7829778319124
311.0214601,2843.7601761132905
310.6950856,2536.773676722052
310.369929,2261.448203264932
310.04598300000004,2004.555364026972
309.7232403,1755.272151984536
309.4016935,1538.022378387568
309.0813356,1337.2097627965456
308.7621594,1151.403493739562
308.4441577,986.5449522762468
308.1273236,837.0842937922657
307.8116501,708.1402745492786
307.49713019999996,528.1099194468513
307.18375710000004,381.37180613584826
306.871524,260.1432211365696
306.5604242,167.6477823373685
306.2504509,104.0534549978451
