wave,flux
1817.164934,3.567473641164025
1790.1022050000001,-4.129833272284471
1763.812741,-2.377252238727728
1738.2646949999998,-0.2643158203550072
1713.427949,-2.4113183283993003
1689.273995,-1.1559288444396776
1665.7758310000002,2.0032135229285917
1642.907862,-2.1276490594767044
1620.64581,-4.0545772738583015
1598.9666300000001,1.8801329543381091
1577.8484310000001,2.3061547925923067
1557.270407,0.15984922027256632
1537.212767,3.2611078399587514
1517.65668,2.480243450484008
1498.5842089999999,90.79849001162522
1479.978265,285.7731267906807
1461.822555,576.1875025320171
1444.101535,967.2744802762033
1426.800368,1492.7770175415033
1409.904887,2149.2845524517
1393.401553,2940.380393267289
1377.2774220000001,3862.067581729809
1361.520115,4777.9130328595975
1346.117782,5673.260808545336
1331.059081,6542.32620452217
1316.3331449999998,7400.366442939093
1301.92956,8167.75360514873
1287.838342,8846.85528924197
1274.049912,9444.447357234088
1260.5550779999999,9996.171361826782
1247.345017,10502.723349423712
1234.4112519999999,10989.503640474077
1221.74564,11455.525236114136
1209.340352,11884.569907135838
1197.187859,12322.750870775151
1185.28092,12781.247673086382
1173.612564,13226.150580129097
1162.1760800000002,13635.472060988459
1150.9650060000001,13987.197062417526
1139.973115,14319.226918496433
1129.194406,14619.585914782498
1118.623093,14909.734395735735
1108.253594,15326.362380555838
1098.0805269999998,15842.077889501492
1088.098695,16533.364734749422
1078.303081,17425.924721090618
1068.688841,18519.439407191818
1059.251295,19815.25105551424
1049.9859199999999,21311.18500942075
1040.8883449999998,23129.92217732021
1031.9543429999999,24987.554911513093
1023.1798259999999,26893.021128158907
1014.5608390000001,28740.360763704248
1006.0935529999999,30541.986426705807
997.774265,32348.13511590495
989.5993858999999,34095.72269601148
981.5654412999999,35876.21245165616
973.6690651,37504.92446092995
965.9069952,39090.282992829714
958.2760697000001,40745.57925479501
950.7732231000001,42839.575980081514
943.3954827,45342.15291264258
936.1399648,48252.316588771886
929.0038716,51553.75396552317
921.9844879000001,55805.233315448604
915.0791782,60878.36640271786
908.2853836000002,66933.49393368461
901.6006193,73869.39149789703
895.0224714,80999.32656802768
888.548595,88320.30340719891
882.1767113,95805.925400401
875.9046055,103300.22911567184
869.7301242999998,110261.28474297386
863.6511742999999,116272.1841864057
857.6657193,121464.46555995088
851.7717787,125846.92708597607
845.9674256000001,129630.27774676034
840.2507849,133049.15891499456
834.6200316000001,135724.0453960378
829.0733892000001,138281.33898565866
823.6091279,140739.72415747883
818.2255633999999,143490.51768568525
812.9210552000001,146411.10764137382
807.694005,149781.99407175233
802.5428559,153224.8161888976
797.4660904,157012.50577017054
792.4622299,161492.0285604448
787.5298327,166253.21359043592
782.6674933999999,171902.5660236417
777.8738417999999,178437.52311127415
773.1475413,186056.8259897999
768.4872882999999,194700.83891497526
763.8918112000001,204526.90575188983
759.3598692,215877.1379162287
754.8902515999999,227711.35702450693
750.4817767999999,240833.36149964962
746.1332914,255299.7343688177
741.8436694000001,271321.6496648602
737.6118116,289247.4990613207
733.4366444,309397.48443461553
729.3171195,333417.5674043352
725.2522127999999,362708.37663845095
721.2409241,397720.9692649657
717.282276,440528.7947038054
713.3753136,489880.65906161396
709.5191037000001,545895.506641404
705.7127343,608284.5804697259
701.9553139,674193.255890922
698.2459709,741896.2250649583
694.5838534,808471.0315696716
690.9681281000001,873449.9018138971
687.3979803,936673.9303478523
683.8726131,999533.2480989632
680.3912472999999,1066665.9253044634
676.9531202000001,1145203.4459872777
673.557486,1246680.6743143108
670.2036149,1379716.0797038244
666.8907926,1560543.3425061237
663.6183202999999,1800920.3823375513
660.3855139,2108269.15796693
657.1917038,2476022.7860775297
654.0362346,2893085.43533353
650.9184646000001,3345821.265702453
647.8377654,3815592.095008792
644.7935217999999,4280589.291107157
641.7851312999999,4715357.139201126
638.8120038,5095255.402518175
635.8735614,5402092.852036568
632.9692378999999,5638888.779513167
630.0984786,5811520.621472371
627.2607402000001,5927889.39573744
624.4554901,5997437.093293898
621.6822068,6031213.439860685
618.940379,6041371.591699023
616.2295054,6041427.638818739
613.549095,6041436.963362712
610.8986664,6041609.932943886
608.2777476,6041145.572279125
605.6858758999999,6039970.289946894
603.1225977000001,6034915.971712533
600.5874682,6025487.428343735
598.0800512,6014272.370203363
595.5999188999999,6003358.602276281
593.1466518,5992012.0152770085
590.7198384999999,5980604.634985887
588.3190752,5969813.211392287
585.943966,5962038.355429253
583.5941226,5961519.130415909
581.2691637,5968073.69363478
578.9687155,5979376.464166649
576.692411,5990474.761988117
574.4398902,6002261.817759452
572.2107997,6012883.421560752
570.0047927,6023999.669642918
567.8215287,6033092.848221425
565.6606737000001,6039152.138317092
563.5218996,6041253.881159113
561.4048845,6041371.047936725
559.3093121,6041373.921055367
557.2348721,6041296.900939936
555.1812597,6041375.598846022
553.1481756000001,6041308.546616756
551.1353259,6041230.204293021
549.1424218999999,6041287.650471324
547.1691801,6041308.748436242
545.2153222000001,6041649.813964208
543.2805745000001,6041389.383536452
541.3646685,6041354.155272466
539.46734,6041102.19027168
537.5883299,6041094.889888842
535.7273833,6041298.380617913
533.8842498,6041084.252936588
532.0586836,6041467.556071903
530.2504428000001,6041614.230474236
528.45929,6041281.9830719065
526.6849915,6041512.764882082
524.927318,6041521.261918351
523.186044,6041296.1301420815
521.4609475999999,6041437.885057108
519.7518110000001,6041239.162501741
518.0584200000001,6041637.472373713
516.3805639,6041765.288798665
514.7180356,6041578.897150904
513.0706316000001,6041459.162803119
511.43815149999995,6033730.52883359
509.82039860000003,6006412.723641835
508.2171791999999,5951028.076406149
506.628303,5862053.430403773
505.05358269999994,5736871.431315486
503.4928341,5575026.774467358
501.9458762,5379410.572275088
500.41253059999997,5153946.791623546
498.8926222,4921691.47278712
497.3859785,4714304.1908391835
495.89242989999997,4558438.519368654
494.4118094,4470179.5091550965
492.943953,4453345.626270488
491.488699,4510067.926989517
490.04588839999997,4634320.495901733
488.6153648,4817997.4050252205
487.19697429999997,5039961.936467516
485.7905654,5271050.163282102
484.39598889999996,5481784.63978526
483.01309800000007,5659291.595213513
481.64174840000004,5800634.4552233815
480.28179789999996,5905847.192012775
478.93310639999993,5976692.307044461
477.59553619999997,6017986.3107834775
476.2689517,6037360.74681443
474.9532192,6041691.341733052
473.6482074,6041258.18425723
472.35378679999997,6041435.229957469
471.06982989999995,6041277.635789554
469.79621110000005,6041451.607828401
468.53280700000005,6041537.301445746
467.2794956999999,6041346.926382485
466.0361575,6041519.855795938
464.80267410000005,6041396.719901375
463.5789295,6041427.453543522
462.364809,6041307.906372576
461.1601998,6041266.575601228
459.9649909,6041630.906922856
458.7790727,6040949.817440974
457.6023374,6041049.051196225
456.4346788,6041455.902424542
455.2759921,6041477.652867222
454.12617439999997,6041484.954532501
452.9851239,6041264.103016924
451.85274060000006,6041226.550143237
450.7289258,6041539.610713989
449.6135822,6041492.676904899
448.5066141,6041499.43981323
447.407927,6041340.898827971
446.317428,6041456.451950526
445.23502520000005,6041637.513157843
444.1606283,6041354.96482041
443.0941482,6041660.513563663
442.03549699999996,6041463.221719572
440.9845882,6041412.729491706
439.9413364,6041456.257488331
438.9056575,6041298.500275365
437.87746860000004,6041487.977598747
436.85668780000003,6041662.180231483
435.8432345,6041305.83298394
434.83702930000004,6041565.256656728
433.83799369999997,6041783.3665037425
432.84605039999997,6041401.385350162
431.8611232,6041074.7937060725
430.8831369,6041306.364947874
429.9120175,6041523.217990106
428.94769169999995,6041403.261769042
427.9900874,6041710.821523108
427.03913370000004,6041337.889187686
426.0947602,6041325.492978363
425.1568978,6041993.901717131
424.22547829999996,6041077.005752902
423.3004343,6041352.705354505
422.3816994,6041568.441288983
421.4692081,6041459.918944531
420.56289569999996,6041562.860138402
419.66269850000003,6041188.50997764
418.7685535,6041562.701023126
417.8803987,6041085.555234525
416.9981727,6041335.4836504515
416.12181519999996,6041222.438615718
415.25126639999996,6041049.9465118935
414.38646760000006,6041592.6714641135
413.5273605,6041519.5484836465
412.673888,6039932.606975187
411.8259934,6035579.040230758
410.9836208,6027170.512249167
410.14671519999996,6015788.661226224
409.3152221,6001180.270604618
408.48908789999996,5984090.640155024
407.66825960000006,5963126.641178678
406.8526847,5937716.839290813
406.0423117,5909172.853023076
405.2370896,5878274.0939444285
404.43696800000004,5844753.690322135
403.64189730000004,5804975.1675853515
402.8518283,5757927.336488508
402.0667126,5701064.191727389
401.28650239999996,5635833.659725905
400.5111505,5563353.588176924
399.7406101,5483843.260218283
398.9748353,5398655.701221039
398.2137806,5308928.004306338
397.457401,5214299.912793555
396.7056521,5112444.647047553
395.9584903,5000418.866547049
395.2158722,4873756.882892319
394.4777551,4724844.82282597
393.7440968,4549880.641912663
393.0148555,4343294.214591558
392.2899901,4104558.6804610263
391.56946,3836221.7743344083
390.853225,3543623.6450890023
390.1412452,3234817.168302996
389.43348169999996,2920700.474624596
388.7298955,2611806.9284127792
388.03044839999995,2318319.4794563367
387.3351027,2049896.251908619
386.6438209,1812052.83641368
385.95656610000003,1608383.3158568242
385.2733019,1438666.2212376532
384.5939922,1301634.459254999
383.9186014,1192603.7395940935
383.2470943,1106810.3816668286
382.5794362,1038880.2554237026
381.9155926,983247.6486351534
381.2555296,935822.6243377008
380.59921360000004,893995.4247269097
379.9466115,854863.7981560269
379.29769039999996,818322.4242917303
378.652418,784241.6864218133
378.0107622,753150.653071321
377.37269130000004,726826.8468156109
376.73817410000004,706254.5184637769
376.1071796,692871.7991604259
375.47967719999997,687848.8930911026
374.8556368,692013.9798392877
374.2350283,706699.4752739447
373.6178223,732460.3189357963
373.0039896,769667.0116160789
372.3935012,818967.3332370394
371.78632860000005,881137.9715149205
371.1824436,956464.2150730608
370.5818182,1045769.107883925
369.98442489999996,1149548.3291430804
369.39023629999997,1269334.3289399762
368.7992255,1407042.8136372808
368.2113658,1564410.5052295816
367.6266307,1743819.670315039
367.0449943,1946235.4961389897
366.4664305,2173458.1235476155
365.89091410000003,2424306.4712456595
365.3184196,2695579.9907032847
364.7489221,2981131.9397106636
364.18239689999996,3270995.0541835083
363.61881960000005,3552599.835011483
363.058166,3810852.2491996763
362.50041219999997,4029085.043026079
361.94553460000003,4191419.615942297
361.3935098,4284620.451058596
360.8443147,4298406.84502296
360.29792630000003,4228171.49068972
359.754322,4075126.0329836686
359.2134795,3847751.5057986975
358.6753765,3557882.069901266
358.1399912,3221814.494727098
357.6073018,2858445.056859576
357.077287,2485982.115389667
356.5499253,2122513.320532747
356.025196,1781428.8151381698
355.50307799999996,1472841.2562385742
354.983551,1203824.9369326888
354.4665945,976482.278282578
353.95218839999995,788937.3876701734
353.4403127,639205.0031936265
352.9309478,521342.00685372023
352.42407410000004,430069.9787990193
351.9196722,360393.8520451537
351.4177232,306845.07976767834
350.91820789999997,265295.0539345983
350.4211078,232837.19637800285
349.9264043,207066.38075460272
349.434079,186532.48011682747
348.9441137,169850.5240073893
348.45649060000005,156495.8123073833
347.97119169999996,145760.03942899188
347.48819960000003,137432.33261565428
347.0074967,130917.72961627273
346.5290657,126017.2716745232
346.0528897,122409.25264484725
345.5789517,119783.15183230505
345.1072349,117695.4891208163
344.6377228,115950.08693374298
344.17039889999995,114367.84746481445
343.70524710000007,112836.02432941168
343.24225110000003,111165.94153045717
342.7813952,109334.38033317756
342.32266339999995,107289.1762462508
341.8660403,104969.7021837152
341.4115102,102434.58842888343
340.959058,99724.92502662356
340.5086685,96685.00928674004
340.06032660000005,93355.12947799666
339.6140175,89708.88003858771
339.1697264,85814.29830784799
338.7274388,81673.9643244938
338.28714019999995,77334.48038915702
337.8488164,72822.61551294607
337.41245310000005,68273.15225456335
336.9780363,63848.63469988162
336.5455522,59652.24052362699
336.114987,55732.269603475055
335.686327,52147.27921847548
335.2595588,48907.641800279765
334.834669,46056.55476037424
334.4116443,43583.79784865648
333.9904716,41415.01630623575
333.57113799999996,39532.448769399685
333.1536305,37876.840570281965
332.73793639999997,36436.092349063634
332.32404310000004,35199.169469015134
331.91193799999996,34140.895339666364
331.5016088,33233.60900592121
331.0930432,32444.602625681568
330.6862289,31735.52538800594
330.281154,31112.932034415386
329.8778065,30498.192524971066
329.47617460000004,29893.823469225532
329.07624649999997,29307.621544732072
328.6780106,28654.35121242863
328.2814555,28023.7689391469
327.88656960000003,27372.90039634728
327.4933418,26724.263957329527
327.1017607,26084.967239884005
326.7118154,25441.493585241617
326.32349480000005,24821.808416241947
325.93678789999996,24196.52550588296
325.5516841,23618.55410649861
325.16817260000005,23059.43194015658
324.7862428,22517.211052313578
324.40588419999995,22003.25498619403
324.0270864,21487.205268428246
323.649839,20963.831817200105
323.2741319,20469.621240225242
322.8999548,19956.74248053435
322.5272977,19477.48403481977
322.1561508,18952.505866825857
321.786504,18464.5805077137
321.4183476,17965.469122304174
321.0516719,17441.440895807318
320.6864673,16951.528730620972
320.3227243,16405.756758088177
319.96043330000003,15772.852855016798
319.5995851,15018.359148580683
319.2401704,14064.15232830615
318.8821799,12951.84212459866
318.5256045,11641.601573042195
318.1704352,10171.238951568348
317.8166631,8573.42397138359
317.4642791,6924.5022284209745
317.1132746,5323.02474179674
316.76364069999994,3887.105508663285
316.4153688,2683.0755693341816
316.06845039999996,1726.6020790640991
315.72287689999996,1004.2530238203641
315.37863980000003,499.1114295606795
315.0357308,197.3907470182943
314.6941415,52.43173913779057
314.3538639,1.3176357555166929
314.0148896,-0.4236357747962155
313.6772106,-6.974889056368508
313.3408189,1.3868029759729317
313.00570639999995,0.3112349396989549
312.67186549999997,-0.011583094684686213
312.33928810000003,3.5377410029444745
312.0079665,2.634374439620776
311.6778931,-0.6405716508783726
311.34906010000003,2.1487012649100765
311.0214601,1.2917556303630793
310.6950856,1.7698897821394368
310.369929,1.0280439454104244
310.04598300000004,2.347664313084859
309.7232403,1.683728695820252
309.4016935,0.4756186511585948
309.0813356,-2.706643059154948
308.7621594,3.5406067665844847
308.4441577,-0.4705461281585124
308.1273236,1.649874839068046
307.8116501,1.0848597664384163
307.49713019999996,-1.3003279429109038
307.18375710000004,1.4467486438270172
306.871524,-1.7494828280824717
306.5604242,1.1191498511156313
306.2504509,3.236851384813343
