wave,flux
1817.164934,5.290095200400535
1790.1022050000001,20.685833737763904
1763.812741,19.282825761750868
1738.2646949999998,64.62918815868613
1713.427949,1059.7340870706892
1689.273995,3209.5906307034074
1665.7758310000002,6508.57060405514
1642.907862,10982.014244293001
1620.64581,16613.190677245617
1598.9666300000001,23379.213148685285
1577.8484310000001,31314.984556177682
1557.270407,40394.081301465965
1537.212767,48872.664146702766
1517.65668,56488.399330754815
1498.5842089999999,63277.36803637045
1479.978265,69115.50748077098
1461.822555,74132.60311970026
1444.101535,78174.32428017036
1426.800368,81444.94443606681
1409.904887,83667.95057962036
1393.401553,85889.05634811628
1377.2774220000001,88024.89790980899
1361.520115,90227.70293527628
1346.117782,92437.69589946019
1331.059081,94638.66700876533
1316.3331449999998,96946.86462843145
1301.92956,99154.64125563117
1287.838342,101412.17049798204
1274.049912,103682.17083842274
1260.5550779999999,106002.39316286676
1247.345017,108532.47908975564
1234.4112519999999,111053.52238840447
1221.74564,113610.34879686516
1209.340352,116363.43010045207
1197.187859,119210.63953510679
1185.28092,122080.36611853885
1173.612564,125036.91977850234
1162.1760800000002,128060.6469918122
1150.9650060000001,131086.69394889596
1139.973115,133929.23575532882
1129.194406,136826.2629370495
1118.623093,139741.33680123047
1108.253594,142584.60966133894
1098.0805269999998,145473.26992574346
1088.098695,148423.32830356757
1078.303081,151741.37410890698
1068.688841,155644.88161178358
1059.251295,160153.62055259413
1049.9859199999999,166079.49475232704
1040.8883449999998,172924.9684125734
1031.9543429999999,181181.03657689464
1023.1798259999999,190807.4191594781
1014.5608390000001,201614.6278745328
1006.0935529999999,213808.18672098385
997.774265,226685.44838894645
989.5993858999999,239976.19020895226
981.5654412999999,253208.5439540552
973.6690651,266244.9427750981
965.9069952,278200.42974528304
958.2760697000001,289014.83706196357
950.7732231000001,298453.52633271803
943.3954827,306288.41899213643
936.1399648,312857.5929499002
929.0038716,317931.9741253105
921.9844879000001,321766.4586469353
915.0791782,325685.2472932971
908.2853836000002,328780.54639549035
901.6006193,333133.75305229647
895.0224714,338270.12895939127
888.548595,346368.4657306004
882.1767113,357193.98218185146
875.9046055,370761.6511057777
869.7301242999998,389150.87466757937
863.6511742999999,412325.63280510274
857.6657193,440688.3484202175
851.7717787,479750.3038159749
845.9674256000001,527548.0455859557
840.2507849,587942.6555483093
834.6200316000001,660434.8508779919
829.0733892000001,743820.7039463989
823.6091279,840423.6653277804
818.2255633999999,946872.6987735664
812.9210552000001,1056903.7376597377
807.694005,1169778.6758392302
802.5428559,1279143.263804925
797.4660904,1385385.4294937588
792.4622299,1498229.2295561696
787.5298327,1613939.4475071812
782.6674933999999,1750401.3225450919
777.8738417999999,1918026.572907212
773.1475413,2127380.4697742374
768.4872882999999,2398809.300126174
763.8918112000001,2721378.036741132
759.3598692,3092072.953499033
754.8902515999999,3496214.6226527626
750.4817767999999,3927491.296044375
746.1332914,4359574.071528587
741.8436694000001,4766852.619890637
737.6118116,5124610.4222868085
733.4366444,5421039.681990077
729.3171195,5648422.947978124
725.2522127999999,5814456.683000307
721.2409241,5930940.02016748
717.282276,6000088.674206
713.3753136,6031686.881573558
709.5191037000001,6045499.2363371365
705.7127343,6041842.194900184
701.9553139,6042078.147806394
698.2459709,6041889.408672729
694.5838534,6042702.671362228
690.9681281000001,6040683.069983763
687.3979803,6042498.167653757
683.8726131,6042525.454888092
680.3912472999999,6038042.962771543
676.9531202000001,6038524.711534055
673.557486,6039237.3397030225
670.2036149,6042662.538039777
666.8907926,6038351.618382082
663.6183202999999,6043826.560440637
660.3855139,6040681.359482551
657.1917038,6041107.823095448
654.0362346,6041118.81071002
650.9184646000001,6043486.018672294
647.8377654,6042501.7796197925
644.7935217999999,6040115.370292388
641.7851312999999,6042196.119386891
638.8120038,6041562.06688314
635.8735614,6040912.885483399
632.9692378999999,6043315.253123352
630.0984786,6041385.130777304
627.2607402000001,6040836.15654033
624.4554901,6041820.2636674475
621.6822068,6042400.371758185
618.940379,6041133.988505877
616.2295054,6041388.739353527
613.549095,6041637.7106107315
610.8986664,6040964.240729597
608.2777476,6041904.546636245
605.6858758999999,6041108.099955639
603.1225977000001,6041426.121340694
600.5874682,6041244.145936425
598.0800512,6041102.398099759
595.5999188999999,6041114.118551527
593.1466518,6041450.511659845
590.7198384999999,6041335.5032376675
588.3190752,6041091.462532756
585.943966,6041823.631060624
583.5941226,6041893.460815842
581.2691637,6041432.213751166
578.9687155,6041604.724803752
576.692411,6041176.417493349
574.4398902,6041554.377595884
572.2107997,6041885.965125692
570.0047927,6041347.030942667
567.8215287,6041239.014876068
565.6606737000001,6041401.888187346
563.5218996,6041023.350440454
561.4048845,6041233.84877044
559.3093121,6041604.265957505
557.2348721,6041370.117787705
555.1812597,6041446.167402712
553.1481756000001,6041514.8443428185
551.1353259,6041857.0445059985
549.1424218999999,6041352.086133709
547.1691801,6041204.458752095
545.2153222000001,6041776.523083845
543.2805745000001,6041542.704019804
541.3646685,6041738.782601976
539.46734,6041563.470741653
537.5883299,6041695.339362147
535.7273833,6041504.120684719
533.8842498,6041443.062824451
532.0586836,6041333.166811712
530.2504428000001,6041560.061072449
528.45929,6041274.703822844
526.6849915,6041799.072828247
524.927318,6041167.806916348
523.186044,6041570.558158767
521.4609475999999,6041716.973261298
519.7518110000001,6041478.802248889
518.0584200000001,6041779.856162177
516.3805639,6041490.870387681
514.7180356,6041630.975319395
513.0706316000001,6041480.797076248
511.43815149999995,6041684.793992113
509.82039860000003,6041560.766417919
508.2171791999999,6041547.015015982
506.628303,6041097.784091283
505.05358269999994,6041728.6696387315
503.4928341,6041759.863117998
501.9458762,6041292.15211748
500.41253059999997,6041255.144155794
498.8926222,6041034.758058675
497.3859785,6041061.243354846
495.89242989999997,6041574.543254253
494.4118094,6041423.15725249
492.943953,6041559.9531285
491.488699,6041321.284811198
490.04588839999997,6041919.936346794
488.6153648,6041595.468799814
487.19697429999997,6041758.385496777
485.7905654,6041313.660146117
484.39598889999996,6041581.824900251
483.01309800000007,6041541.638402877
481.64174840000004,6041416.971179256
480.28179789999996,6041669.392293587
478.93310639999993,6041414.17963735
477.59553619999997,6041549.004368134
476.2689517,6041488.763109886
474.9532192,6041465.044502385
473.6482074,6041547.803496163
472.35378679999997,6041182.4103761325
471.06982989999995,6041567.901474895
469.79621110000005,6041525.224820698
468.53280700000005,6041193.207889073
467.2794956999999,6041690.182973822
466.0361575,6041124.931209953
464.80267410000005,6041040.620773402
463.5789295,6041314.728971222
462.364809,6041452.37851691
461.1601998,6041554.663590161
459.9649909,6041302.871606035
458.7790727,6041461.945935935
457.6023374,6041350.882500645
456.4346788,6042110.767348594
455.2759921,6041327.296337328
454.12617439999997,6041642.257792237
452.9851239,6041378.591871444
451.85274060000006,6041636.843677714
450.7289258,6041086.82831505
449.6135822,6041633.529777638
448.5066141,6041694.641161
447.407927,6041319.670600492
446.317428,6041359.331149577
445.23502520000005,6041305.94667385
444.1606283,6041530.6927580815
443.0941482,6041299.817700285
442.03549699999996,6041348.397931104
440.9845882,6041446.6990462085
439.9413364,6041485.261892728
438.9056575,6041162.117072567
437.87746860000004,6041411.12141487
436.85668780000003,6041654.436412246
435.8432345,6041253.3593177125
434.83702930000004,6041587.899375476
433.83799369999997,6041230.96933756
432.84605039999997,6041512.5599445
431.8611232,6041408.676542598
430.8831369,6041582.372566385
429.9120175,6042200.732584153
428.94769169999995,6041340.187001145
427.9900874,6041160.565185166
427.03913370000004,6041250.816400525
426.0947602,6041418.48121925
425.1568978,6041365.782781101
424.22547829999996,6041706.664072335
423.3004343,6041644.145220688
422.3816994,6041003.85125647
421.4692081,6041284.630864822
420.56289569999996,6041513.670989411
419.66269850000003,6041117.724508199
418.7685535,6041867.650304207
417.8803987,6041814.9416883625
416.9981727,6041324.45874729
416.12181519999996,6041861.9651627485
415.25126639999996,6041264.913954485
414.38646760000006,6041836.340351348
413.5273605,6041574.947293081
412.673888,6041872.642826525
411.8259934,6041611.212357337
410.9836208,6041544.663763455
410.14671519999996,6041442.628060224
409.3152221,6041384.054368361
408.48908789999996,6041129.577729496
407.66825960000006,6041643.168272682
406.8526847,6040951.777612955
406.0423117,6041269.41374335
405.2370896,6041170.449873289
404.43696800000004,6041960.0936282985
403.64189730000004,6041344.056052837
402.8518283,6041358.005345541
402.0667126,6041403.77166997
401.28650239999996,6041330.221833844
400.5111505,6041329.800603326
399.7406101,6040917.320692826
398.9748353,6040979.035448932
398.2137806,6041224.293768767
397.457401,6041383.535205362
396.7056521,6041070.1480699
395.9584903,6041021.46226311
395.2158722,6041907.293493183
394.4777551,6041376.308430033
393.7440968,6040738.888187275
393.0148555,6041256.52668329
392.2899901,6041058.549329801
391.56946,6041438.733394984
390.853225,6041587.435620473
390.1412452,6041695.202302557
389.43348169999996,6041296.918366618
388.7298955,6041946.781934038
388.03044839999995,6040490.884365643
387.3351027,6033945.504373757
386.6438209,6017271.926480905
385.95656610000003,5987184.457371683
385.2733019,5939931.772969858
384.5939922,5875516.2665101485
383.9186014,5790629.865742085
383.2470943,5685407.602866349
382.5794362,5561697.698659735
381.9155926,5429370.965375462
381.2555296,5297490.278355487
380.59921360000004,5176063.958547769
379.9466115,5070420.160558638
379.29769039999996,4988285.910067976
378.652418,4930469.319630624
378.0107622,4901441.341412358
377.37269130000004,4900483.693447744
376.73817410000004,4920725.597923256
376.1071796,4956041.536023007
375.47967719999997,5001794.649346883
374.8556368,5047700.700931206
374.2350283,5092040.219948188
373.6178223,5127836.849051178
373.0039896,5152905.226182738
372.3935012,5164654.326079017
371.78632860000005,5164133.682368056
371.1824436,5152018.68109712
370.5818182,5132354.60149865
369.98442489999996,5108017.774653503
369.39023629999997,5083214.980274886
368.7992255,5061041.564244277
368.2113658,5045349.085556698
367.6266307,5038341.737659147
367.0449943,5040462.114439699
366.4664305,5053136.5920249885
365.89091410000003,5073393.069928356
365.3184196,5101212.078408253
364.7489221,5132268.435282203
364.18239689999996,5164709.942548132
363.61881960000005,5195415.805693423
363.058166,5220871.639484881
362.50041219999997,5239577.305409183
361.94553460000003,5249609.215585026
361.3935098,5248610.564022293
360.8443147,5237101.558970924
360.29792630000003,5213611.470573659
359.754322,5180027.892237657
359.2134795,5133691.247983865
358.6753765,5076230.382674758
358.1399912,5007821.57445055
357.6073018,4928790.547490179
357.077287,4839546.04302273
356.5499253,4740584.413995593
356.025196,4632408.897428795
355.50307799999996,4515614.618698402
354.983551,4390502.3025952885
354.4665945,4257916.110219763
353.95218839999995,4119310.841788644
353.4403127,3974274.644379749
352.9309478,3824254.126409743
352.42407410000004,3671247.553734837
351.9196722,3514205.503086138
351.4177232,3355150.4610675983
350.91820789999997,3194490.1442103162
350.4211078,3033081.8323164005
349.9264043,2871737.86917323
349.434079,2709876.9887845884
348.9441137,2549437.529655115
348.45649060000005,2390619.2161091664
347.97119169999996,2233699.5344295064
347.48819960000003,2080252.5635902928
347.0074967,1930568.22236
346.5290657,1785182.3745004362
346.0528897,1645827.2392051937
345.5789517,1512404.3823752888
345.1072349,1386005.473288483
344.6377228,1266461.6935320646
344.17039889999995,1155035.1612836048
343.70524710000007,1051101.1603448028
343.24225110000003,955328.3759860052
342.7813952,866826.77463416
342.32266339999995,785976.83992461
341.8660403,712372.4705608912
341.4115102,645077.2983031807
340.959058,584130.9603975528
340.5086685,529017.4903416798
340.06032660000005,479568.34910527366
339.6140175,435301.9422512264
339.1697264,395633.45397613023
338.7274388,360561.65352260607
338.28714019999995,329796.6945546772
337.8488164,302703.44429248554
337.41245310000005,279018.3662142447
336.9780363,258610.1196440736
336.5455522,240650.9339956538
336.114987,225125.01470327828
335.686327,211370.0532852598
335.2595588,199395.765193712
334.834669,188711.87183083227
334.4116443,179048.36028605286
333.9904716,170328.98582706624
333.57113799999996,162429.45198844463
333.1536305,155287.23844046704
332.73793639999997,148618.07143927598
332.32404310000004,142572.35167228238
331.91193799999996,136884.37431980963
331.5016088,131663.77480455438
331.0930432,126697.62836969929
330.6862289,121948.29565654956
330.281154,117545.37849185846
329.8778065,113309.56909200425
329.47617460000004,109134.17440025252
329.07624649999997,105188.71465975119
328.6780106,101362.0701231552
328.2814555,97706.06754567307
327.88656960000003,94090.65705321594
327.4933418,90574.2014095286
327.1017607,87118.9656660989
326.7118154,83714.52213680917
326.32349480000005,80463.0498441852
325.93678789999996,77214.59611037074
325.5516841,74118.89635421222
325.16817260000005,71071.9070385349
324.7862428,68152.8311553986
324.40588419999995,65332.480525705876
324.0270864,62722.88225070293
323.649839,60240.91148645188
323.2741319,57859.67627370598
322.8999548,55612.53286031759
322.5272977,53462.919517135364
322.1561508,51408.930336768244
321.786504,49424.87742648245
321.4183476,47532.75940580914
321.0516719,45656.42696796736
320.6864673,43792.35561362605
320.3227243,41968.92917118728
319.96043330000003,40218.88350930154
319.5995851,38447.306275642164
319.2401704,36677.38729242578
318.8821799,34962.613002703016
318.5256045,33273.123177222966
318.1704352,31617.77661795543
317.8166631,30005.87449833445
317.4642791,28423.56322761012
317.1132746,26824.91122094958
316.76364069999994,25329.05730745466
316.4153688,23835.15061541796
316.06845039999996,22372.901357619645
315.72287689999996,20983.99258828636
315.37863980000003,19617.16770853428
315.0357308,18312.938907692973
314.6941415,17048.887338010198
314.3538639,15816.026937579529
314.0148896,14633.350415818051
313.6772106,13498.137667830339
313.3408189,12422.45779788406
313.00570639999995,11384.763672833467
312.67186549999997,10420.052520812698
312.33928810000003,9502.136650350052
312.0079665,8638.596659635055
311.6778931,7827.617537329777
311.34906010000003,7053.438005045116
311.0214601,6334.516712942852
310.6950856,5661.700538791593
310.369929,5038.186114701786
310.04598300000004,4451.387468362129
309.7232403,3911.0650985608986
309.4016935,3423.702188196314
309.0813356,2969.8652761538697
308.7621594,2566.034052128349
308.4441577,2193.350979882743
308.1273236,1864.915599338184
307.8116501,1574.9626960854973
307.49713019999996,1178.6071078289835
307.18375710000004,843.7704733134207
306.871524,585.2345804862935
306.5604242,381.98866398490014
306.2504509,231.13845752398367
