wave,flux
1817.164934,-3.499012082143996
1790.1022050000001,-5.239597206932415
1763.812741,1.043097403183472
1738.2646949999998,-2.8303074631576663
1713.427949,8.877270103474393
1689.273995,36.074570136312936
1665.7758310000002,64.75420851240528
1642.907862,102.69942844486107
1620.64581,163.2293105420496
1598.9666300000001,228.2857541600717
1577.8484310000001,301.8665539766454
1557.270407,389.08541784322165
1537.212767,462.8531836817845
1517.65668,536.5887224540792
1498.5842089999999,598.2731059763139
1479.978265,649.177320587945
1461.822555,693.0133021774324
1444.101535,730.062947472221
1426.800368,750.1365558880894
1409.904887,778.1147278196819
1393.401553,791.9874298075157
1377.2774220000001,811.0303256351988
1361.520115,826.4288104301614
1346.117782,839.0522580160698
1331.059081,858.3481219641418
1316.3331449999998,873.7685148332395
1301.92956,893.0043998641657
1287.838342,903.4668250726328
1274.049912,924.5460411435687
1260.5550779999999,940.4065767301497
1247.345017,965.56815553946
1234.4112519999999,973.7124469193224
1221.74564,978.4368794712708
1209.340352,1007.1612141442794
1197.187859,1016.5813119901848
1185.28092,1029.6292953694033
1173.612564,1077.3748964125014
1162.1760800000002,1111.9606442464456
1150.9650060000001,1115.0811990068519
1139.973115,1831.734313645283
1129.194406,3300.5314967543213
1118.623093,5413.172186712337
1108.253594,8278.150836256604
1098.0805269999998,11817.544504789084
1088.098695,16032.112296990688
1078.303081,20979.08198610521
1068.688841,26644.24038670483
1059.251295,33276.321686234616
1049.9859199999999,40958.680622453016
1040.8883449999998,49724.178042335305
1031.9543429999999,59414.80588063318
1023.1798259999999,70206.22921353426
1014.5608390000001,82008.5335906915
1006.0935529999999,94801.08927058654
997.774265,108500.38182713608
989.5993858999999,120962.82068287689
981.5654412999999,131946.43638354013
973.6690651,141578.9917158815
965.9069952,149805.57916590228
958.2760697000001,156550.96915966648
950.7732231000001,161956.76497986814
943.3954827,166040.81545442017
936.1399648,168765.73094364154
929.0038716,171362.93254897065
921.9844879000001,174034.74633515198
915.0791782,176926.43011288324
908.2853836000002,179718.57960261614
901.6006193,182816.148328801
895.0224714,185691.15073231046
888.548595,188836.01740829455
882.1767113,191964.1489922416
875.9046055,195315.0115876589
869.7301242999998,198695.1389986859
863.6511742999999,202226.39796459014
857.6657193,205899.5265457613
851.7717787,209790.487926752
845.9674256000001,213538.1087416218
840.2507849,217897.57821218067
834.6200316000001,221972.30310668386
829.0733892000001,226402.8500923805
823.6091279,230530.70420721808
818.2255633999999,234405.61749697372
812.9210552000001,237738.51829528649
807.694005,240741.8926450807
802.5428559,243205.75285830934
797.4660904,245368.57609345892
792.4622299,247419.6790336823
787.5298327,249457.7283165082
782.6674933999999,251253.5609976632
777.8738417999999,253144.34914607808
773.1475413,254697.9701867663
768.4872882999999,256125.3518775325
763.8918112000001,257288.20250815235
759.3598692,258665.2228748723
754.8902515999999,260746.67889004716
750.4817767999999,264181.58438415115
746.1332914,269994.0265622018
741.8436694000001,278412.99237998785
737.6118116,290375.17464549845
733.4366444,306458.3904458988
729.3171195,325048.6857408807
725.2522127999999,347655.047949005
721.2409241,371918.58748643217
717.282276,398147.02749038296
713.3753136,425539.9093480057
709.5191037000001,455369.58197947545
705.7127343,488246.8526843264
701.9553139,524283.36655218404
698.2459709,566276.5095694197
694.5838534,615045.98426397
690.9681281000001,670606.7599628088
687.3979803,734814.579666985
683.8726131,807137.5814821371
680.3912472999999,886329.5174651955
676.9531202000001,970972.8277472206
673.557486,1059480.5429916491
670.2036149,1148490.4255626223
666.8907926,1237337.9796682578
663.6183202999999,1323970.2104285131
660.3855139,1407521.148891891
657.1917038,1487770.2071718047
654.0362346,1567145.3934789225
650.9184646000001,1648069.1794301884
647.8377654,1737003.8587408825
644.7935217999999,1839699.0186217702
641.7851312999999,1965184.318615871
638.8120038,2122006.3966153446
635.8735614,2318295.932368644
632.9692378999999,2560410.0532976715
630.0984786,2851673.628847935
627.2607402000001,3185827.2414716375
624.4554901,3551605.172125468
621.6822068,3935268.122935929
618.940379,4322194.467482545
616.2295054,4694723.986995071
613.549095,5036205.311423281
610.8986664,5330473.004459279
608.2777476,5565366.911930819
605.6858758999999,5743722.634279867
603.1225977000001,5871975.031695138
600.5874682,5957680.670966097
598.0800512,6008333.375819881
595.5999188999999,6033336.7025104165
593.1466518,6041289.324141505
590.7198384999999,6041548.5961908335
588.3190752,6041419.848486855
585.943966,6041481.14184734
583.5941226,6041284.617020836
581.2691637,6041516.8892440675
578.9687155,6041620.254564728
576.692411,6041510.115728888
574.4398902,6041632.936726375
572.2107997,6041156.431012552
570.0047927,6041372.660088532
567.8215287,6041638.54815705
565.6606737000001,6041971.600212121
563.5218996,6041212.941756891
561.4048845,6041315.423798176
559.3093121,6041222.1213176
557.2348721,6041480.202884926
555.1812597,6041226.595200563
553.1481756000001,6040608.222024137
551.1353259,6041761.435719327
549.1424218999999,6041327.200298044
547.1691801,6041532.6910405215
545.2153222000001,6041597.99528339
543.2805745000001,6041284.83346767
541.3646685,6040953.135993873
539.46734,6041397.598818196
537.5883299,6041392.747109244
535.7273833,6039694.26088267
533.8842498,6023180.961933284
532.0586836,5981879.420744153
530.2504428000001,5908081.064999958
528.45929,5795258.646223504
526.6849915,5639482.26813667
524.927318,5439036.778240976
523.186044,5193467.973679882
521.4609475999999,4908606.616369692
519.7518110000001,4610793.161532507
518.0584200000001,4320604.757790478
516.3805639,4054625.8271616837
514.7180356,3824583.717608878
513.0706316000001,3636268.6320699626
511.43815149999995,3491271.570198108
509.82039860000003,3384371.945742675
508.2171791999999,3307204.629614724
506.628303,3240114.50797939
505.05358269999994,3167774.5099051995
503.4928341,3078419.5803819736
501.9458762,2966242.753478452
500.41253059999997,2828732.6658987505
498.8926222,2669206.489690508
497.3859785,2494444.511228748
495.89242989999997,2312245.046010341
494.4118094,2131631.758613911
492.943953,1959648.3715608404
491.488699,1800501.2436876532
490.04588839999997,1656889.849881129
488.6153648,1529999.9520344478
487.19697429999997,1418605.9811702154
485.7905654,1322210.7589715698
484.39598889999996,1238903.3490335622
483.01309800000007,1167748.7442382656
481.64174840000004,1107291.215813471
480.28179789999996,1057186.588530462
478.93310639999993,1016482.009723048
477.59553619999997,985321.8778259428
476.2689517,962837.0723850905
474.9532192,948269.4470866849
473.6482074,940431.1721031377
472.35378679999997,938354.230263122
471.06982989999995,940476.2498506256
469.79621110000005,945252.8455679704
468.53280700000005,951062.930270702
467.2794956999999,955831.2565923613
466.0361575,957852.2432997072
464.80267410000005,955280.3214117793
463.5789295,946638.8274180637
462.364809,931352.1588646908
461.1601998,909635.0821762269
459.9649909,882387.2344340907
458.7790727,851352.272186596
457.6023374,818091.7848920295
456.4346788,784608.9133476892
455.2759921,752299.9586110759
454.12617439999997,722474.3639530967
452.9851239,695716.8663817628
451.85274060000006,672059.8927440789
450.7289258,651164.0198490068
449.6135822,632630.2517104626
448.5066141,615778.9489769259
447.407927,600238.1466749753
446.317428,585852.5992821797
445.23502520000005,572448.1913261835
444.1606283,560034.7599443889
443.0941482,548618.6486185236
442.03549699999996,538192.4569072914
440.9845882,528471.899699095
439.9413364,519282.4471586926
438.9056575,510411.7933668229
437.87746860000004,501417.0857845228
436.85668780000003,492120.2640434069
435.8432345,482356.6509882958
434.83702930000004,471850.75945509045
433.83799369999997,460692.02086895175
432.84605039999997,448874.15926481603
431.8611232,434989.0080631584
430.8831369,419428.82504413015
429.9120175,402355.8777422994
428.94769169999995,384098.2753587982
427.9900874,364942.6436241652
427.03913370000004,345077.38616169075
426.0947602,324648.1505257183
425.1568978,303727.8404369363
424.22547829999996,282307.0624064909
423.3004343,260514.39530716644
422.3816994,238267.12461875172
421.4692081,215509.06884542585
420.56289569999996,192276.68337971013
419.66269850000003,168500.75357339848
418.7685535,144080.01039018828
417.8803987,119169.45806321866
416.9981727,97863.6055606484
416.12181519999996,79981.78373579963
415.25126639999996,65458.02613479624
414.38646760000006,54103.00451833521
413.5273605,45800.5992000365
412.673888,40383.12426025117
411.8259934,37759.809402628634
410.9836208,37747.03566415432
410.14671519999996,37532.90364014393
409.3152221,37125.988506606
408.48908789999996,36542.862597910076
407.66825960000006,35781.60091616827
406.8526847,34959.83136391689
406.0423117,34102.958615016534
405.2370896,33275.23166534729
404.43696800000004,32542.04017285033
403.64189730000004,31967.9658733781
402.8518283,31547.993601575294
402.0667126,31313.92547763456
401.28650239999996,31215.63104421123
400.5111505,31212.75771388335
399.7406101,31243.614954650668
398.9748353,31237.91368905436
398.2137806,31163.383702919178
397.457401,30973.372705533468
396.7056521,30661.610600408574
395.9584903,30230.39206411229
395.2158722,29698.424756269284
394.4777551,29183.181775006036
393.7440968,28699.462761215942
393.0148555,28266.239252825802
392.2899901,27952.156524071903
391.56946,27734.37886513993
390.853225,27583.903082668206
390.1412452,27477.521585589253
389.43348169999996,27357.227764833882
388.7298955,27136.257333521644
388.03044839999995,26773.990066204093
387.3351027,26234.96186737563
386.6438209,25485.640471176688
385.95656610000003,24545.074029851134
385.2733019,23421.699683689872
384.5939922,22168.79129135561
383.9186014,20838.948462307795
383.2470943,19480.92224888815
382.5794362,18191.679912222648
381.9155926,17004.241478617958
381.2555296,15969.930344088883
380.59921360000004,15128.873678272652
379.9466115,14506.301105539851
379.29769039999996,14098.233387795295
378.652418,13910.323141466115
378.0107622,13908.400600865492
377.37269130000004,14077.232184207896
376.73817410000004,14343.752640967185
376.1071796,14682.02205111421
375.47967719999997,15031.51279450996
374.8556368,15344.058277383005
374.2350283,15577.867557932306
373.6178223,15710.250483878066
373.0039896,15693.755154818717
372.3935012,15521.659736201469
371.78632860000005,15217.49768888706
371.1824436,14777.104614923124
370.5818182,14231.818503774888
369.98442489999996,13615.901493245216
369.39023629999997,12939.740710528638
368.7992255,12249.118597747085
368.2113658,11574.584409725368
367.6266307,10929.173655796767
367.0449943,10318.16456901735
366.4664305,9738.578527805152
365.89091410000003,9192.549798032222
365.3184196,8683.662884823592
364.7489221,8185.35127319055
364.18239689999996,7696.437737056275
363.61881960000005,7196.216076155532
363.058166,6704.017704573018
362.50041219999997,6195.591355573738
361.94553460000003,5686.987266515908
361.3935098,5171.309955411493
360.8443147,4670.180110182871
360.29792630000003,4175.685707527966
359.754322,3711.5117692648278
359.2134795,3280.7298506517573
358.6753765,2884.841239762249
358.1399912,2530.1434607790547
357.6073018,2216.357829345472
357.077287,1944.0053647608624
356.5499253,1715.1050411922974
356.025196,1525.3971995870004
355.50307799999996,1363.7388582748054
354.983551,1235.1385271240058
354.4665945,1125.3229156193693
353.95218839999995,1035.358694622781
353.4403127,958.1629619131648
352.9309478,903.1817577052524
352.42407410000004,856.6528090993413
351.9196722,813.4490226394764
351.4177232,773.1000347520593
350.91820789999997,744.5098527256912
350.4211078,722.1243274875071
349.9264043,694.4080061321426
349.434079,671.3951088263046
348.9441137,651.6967090168233
348.45649060000005,622.9892509199499
347.97119169999996,600.6282434214661
347.48819960000003,576.5203215298093
347.0074967,557.1834839097754
346.5290657,534.9198363154935
346.0528897,518.1881831129017
345.5789517,493.78630014026015
345.1072349,478.13016855574585
344.6377228,462.2231757988237
344.17039889999995,445.0860766773222
343.70524710000007,427.3725056643946
343.24225110000003,412.9536186903067
342.7813952,398.9291931844817
342.32266339999995,384.18018531236777
341.8660403,367.0599052073666
341.4115102,353.8274789631893
340.959058,335.62648356688726
340.5086685,316.93587464050813
340.06032660000005,304.37421561104236
339.6140175,293.81447849508123
339.1697264,276.98816810271967
338.7274388,267.28215444151425
338.28714019999995,253.68472222625104
337.8488164,239.45248303269645
337.41245310000005,231.47176062242062
336.9780363,219.26922109445545
336.5455522,212.8830073630423
336.114987,197.4030471255732
335.686327,187.9189802160429
335.2595588,181.27494901199046
334.834669,170.8658601591023
334.4116443,161.19738054817068
333.9904716,147.86239616266658
333.57113799999996,135.31164375830522
333.1536305,129.8354737392987
332.73793639999997,123.96742138090185
332.32404310000004,120.48280432323436
331.91193799999996,109.75066462735836
331.5016088,105.1123731924212
331.0930432,96.26164290215901
330.6862289,95.93369791624414
330.281154,87.6779633801108
329.8778065,87.17913458669966
329.47617460000004,85.58235732812103
329.07624649999997,82.6196280603441
328.6780106,83.61698490590392
328.2814555,78.01512918549204
327.88656960000003,74.29431720599263
327.4933418,73.46746976926877
327.1017607,65.58534618216089
326.7118154,63.73654896637089
326.32349480000005,56.76047489675044
325.93678789999996,47.47038318720664
325.5516841,50.938392144154214
325.16817260000005,43.09072879310627
324.7862428,40.13596564072788
324.40588419999995,36.626668405161745
324.0270864,26.905322282041283
323.649839,30.789774442057833
323.2741319,23.533873446120246
322.8999548,24.771422587010182
322.5272977,22.242046519028857
322.1561508,18.343821483192702
321.786504,18.961850569351
321.4183476,13.821127429802575
321.0516719,15.914160066913452
320.6864673,13.218809615176294
320.3227243,4.641711680742076
319.96043330000003,8.644673915944853
319.5995851,8.771239030365434
319.2401704,2.502960273205181
318.8821799,7.237243978517532
318.5256045,2.6721784959572616
318.1704352,-0.24811172560518055
317.8166631,1.8837220307913156
317.4642791,-1.9279904172329212
317.1132746,1.246962804458441
316.76364069999994,0.6914114895791778
316.4153688,-1.8526199323563648
316.06845039999996,5.765147910328113
315.72287689999996,3.2755751886716182
315.37863980000003,-0.2947683888757239
315.0357308,0.013637878419966106
314.6941415,-4.2048369587500645
314.3538639,1.2123990207368216
314.0148896,0.2447769876606225
313.6772106,-0.4055695077318254
313.3408189,2.0209416597603096
313.00570639999995,0.8845599697694458
312.67186549999997,-1.715700846627192
312.33928810000003,0.19044477669447152
312.0079665,-1.19074040495629
311.6778931,1.2872983557523427
311.34906010000003,1.2362767343626329
311.0214601,-3.8108530202258586
310.6950856,-6.718744971348892
310.369929,-2.3097048836037763
310.04598300000004,-0.8815652944508147
309.7232403,-3.2531613756263607
309.4016935,-4.0095840403881216
309.0813356,-2.3503114445798943
308.7621594,1.8264124628808307
308.4441577,-2.688771606140666
308.1273236,-1.7454861280780103
307.8116501,1.1994262825220223
307.49713019999996,-0.2683872084188338
307.18375710000004,-2.917981184386268
306.871524,0.2610963539416178
306.5604242,-4.727747765175844
306.2504509,5.403529720394566
