wave,flux
1817.164934,-2.321485791449496
1790.1022050000001,6.3018169968988165
1763.812741,11.847740410818114
1738.2646949999998,48.12669441198132
1713.427949,532.1359366146793
1689.273995,1585.1929495027468
1665.7758310000002,3141.7920271589837
1642.907862,5244.898507160042
1620.64581,7898.1136957051895
1598.9666300000001,11103.735510890301
1577.8484310000001,14910.044019685603
1557.270407,19243.47044084501
1537.212767,23306.64971179086
1517.65668,27037.40291634249
1498.5842089999999,30418.91500621654
1479.978265,33477.07204096897
1461.822555,36151.31735086655
1444.101535,38443.94027554653
1426.800368,40425.069503687584
1409.904887,41935.898640243024
1393.401553,43499.54600717954
1377.2774220000001,45092.18879019
1361.520115,46738.953205743615
1346.117782,48323.281673898484
1331.059081,49992.95770920172
1316.3331449999998,51732.97051151786
1301.92956,53386.97321967471
1287.838342,55170.161724679216
1274.049912,56946.44252559442
1260.5550779999999,58778.12739362652
1247.345017,60658.83205313758
1234.4112519999999,62652.056377072295
1221.74564,64587.600443989024
1209.340352,66704.75158554899
1197.187859,68764.05355249769
1185.28092,70885.81918883184
1173.612564,73198.02333793072
1162.1760800000002,75444.71081393816
1150.9650060000001,77753.04602051746
1139.973115,80057.94478577515
1129.194406,82335.01764784628
1118.623093,84528.20502739369
1108.253594,86875.68471479253
1098.0805269999998,89156.81228906556
1088.098695,91690.740074712
1078.303081,94222.11202995779
1068.688841,97031.02015502537
1059.251295,100363.0813436694
1049.9859199999999,104034.230662911
1040.8883449999998,108438.738445233
1031.9543429999999,113386.68012796545
1023.1798259999999,119074.68515694744
1014.5608390000001,125520.77260637887
1006.0935529999999,132489.42463481743
997.774265,139833.70952056107
989.5993858999999,147417.27174664347
981.5654412999999,155229.17838497527
973.6690651,162661.55280887734
965.9069952,170102.18302486205
958.2760697000001,176769.41355241786
950.7732231000001,183174.10651262823
943.3954827,188738.0567098065
936.1399648,193741.6066156798
929.0038716,198086.73434228712
921.9844879000001,202106.63844695012
915.0791782,205848.54513517144
908.2853836000002,209989.18026087093
901.6006193,214349.24268578397
895.0224714,218965.84967553825
888.548595,225029.37131001183
882.1767113,232168.75797704372
875.9046055,241103.60921744065
869.7301242999998,251547.8366676645
863.6511742999999,264774.7287546969
857.6657193,280728.5128740854
851.7717787,301363.3228133083
845.9674256000001,326228.7636193086
840.2507849,356533.2665390122
834.6200316000001,392100.3188600149
829.0733892000001,432434.792212027
823.6091279,478594.46980320354
818.2255633999999,529273.3299186099
812.9210552000001,582513.7886973772
807.694005,634880.181223593
802.5428559,688466.440134099
797.4660904,743871.9522915303
792.4622299,796746.3182455058
787.5298327,858619.4690188995
782.6674933999999,928268.4265261288
777.8738417999999,1010714.250450824
773.1475413,1117611.4615712971
768.4872882999999,1252544.2840577126
763.8918112000001,1422520.761290426
759.3598692,1625696.209372121
754.8902515999999,1861454.2531525563
750.4817767999999,2126048.6993140117
746.1332914,2412226.058563903
741.8436694000001,2700983.074932339
737.6118116,2985505.032549398
733.4366444,3253149.103938397
729.3171195,3501959.3128254837
725.2522127999999,3734540.8444737135
721.2409241,3957708.1943946364
717.282276,4171363.231031671
713.3753136,4379282.182398878
709.5191037000001,4584586.421765115
705.7127343,4800091.537666491
701.9553139,5021346.335689342
698.2459709,5244399.230287889
694.5838534,5448526.490968109
690.9681281000001,5619336.701451415
687.3979803,5757496.405467932
683.8726131,5871313.696310945
680.3912472999999,5953533.811838819
676.9531202000001,6005641.295037648
673.557486,6033733.282785877
670.2036149,6042404.101017173
666.8907926,6039339.55445324
663.6183202999999,6038409.7776403865
660.3855139,6042624.689161737
657.1917038,6040759.364203593
654.0362346,6040651.004110753
650.9184646000001,6040885.263861477
647.8377654,6039858.1020371765
644.7935217999999,6042152.253691347
641.7851312999999,6040280.85490073
638.8120038,6041661.598632247
635.8735614,6040724.22035388
632.9692378999999,6041840.527657115
630.0984786,6041596.886021805
627.2607402000001,6039911.934614615
624.4554901,6041569.078870637
621.6822068,6040845.77956444
618.940379,6041518.909885176
616.2295054,6041175.762332822
613.549095,6041126.1854873765
610.8986664,6041246.943158178
608.2777476,6040833.255657177
605.6858758999999,6041521.32191599
603.1225977000001,6041576.323450213
600.5874682,6041348.726923966
598.0800512,6041042.397997006
595.5999188999999,6041607.189906099
593.1466518,6041348.283601607
590.7198384999999,6041397.957800394
588.3190752,6041232.826073907
585.943966,6041351.946768138
583.5941226,6041142.229603828
581.2691637,6041391.228397251
578.9687155,6041238.356820067
576.692411,6041535.154712731
574.4398902,6041233.076732785
572.2107997,6041419.199413175
570.0047927,6041584.505243754
567.8215287,6041438.319148846
565.6606737000001,6041590.824187403
563.5218996,6041383.33287483
561.4048845,6041153.389004443
559.3093121,6041110.932244888
557.2348721,6041064.169295417
555.1812597,6041367.366446967
553.1481756000001,6041349.744218504
551.1353259,6041381.270351185
549.1424218999999,6041595.738198715
547.1691801,6041346.045072203
545.2153222000001,6041341.185977508
543.2805745000001,6041338.438324279
541.3646685,6041460.349345017
539.46734,6041440.721360229
537.5883299,6041262.1939953165
535.7273833,6041576.393185877
533.8842498,6041410.591977778
532.0586836,6041732.937836095
530.2504428000001,6041460.41042729
528.45929,6041285.805210879
526.6849915,6041536.724256421
524.927318,6041213.640499067
523.186044,6041242.43051143
521.4609475999999,6041215.365223758
519.7518110000001,6041623.18470185
518.0584200000001,6041288.2711023465
516.3805639,6041594.744836464
514.7180356,6041013.5813073935
513.0706316000001,6041460.157499195
511.43815149999995,6041024.573874874
509.82039860000003,6041097.975735319
508.2171791999999,6041223.188238264
506.628303,6041423.607023204
505.05358269999994,6041115.747087903
503.4928341,6041521.101654248
501.9458762,6041382.793849497
500.41253059999997,6041203.220486969
498.8926222,6041518.198903725
497.3859785,6041179.154894113
495.89242989999997,6041418.577787929
494.4118094,6041316.774299181
492.943953,6041521.927251285
491.488699,6041261.250456357
490.04588839999997,6041581.738761433
488.6153648,6041243.712175897
487.19697429999997,6041290.0517183775
485.7905654,6040837.241743913
484.39598889999996,6041398.907027897
483.01309800000007,6041258.983090589
481.64174840000004,6041396.32597901
480.28179789999996,6041508.684763903
478.93310639999993,6041328.994973953
477.59553619999997,6041327.836361228
476.2689517,6041471.144584392
474.9532192,6041498.638620987
473.6482074,6041253.209039326
472.35378679999997,6041530.734308929
471.06982989999995,6041510.2820323715
469.79621110000005,6041125.231876579
468.53280700000005,6041432.442389334
467.2794956999999,6041313.583928582
466.0361575,6041147.982107551
464.80267410000005,6040773.103561615
463.5789295,6041522.022889885
462.364809,6041354.327984562
461.1601998,6041411.2539195875
459.9649909,6041614.481083384
458.7790727,6041599.336488836
457.6023374,6041467.343990816
456.4346788,6041325.387151833
455.2759921,6041462.148364223
454.12617439999997,6041636.697578734
452.9851239,6041349.637824497
451.85274060000006,6041073.9243587535
450.7289258,6041178.595083522
449.6135822,6041245.026009105
448.5066141,6041547.163312608
447.407927,6041866.6661906
446.317428,6041546.538076012
445.23502520000005,6040913.261408937
444.1606283,6041105.870725632
443.0941482,6041025.583846091
442.03549699999996,6041237.674869595
440.9845882,6041412.154941273
439.9413364,6041770.018733753
438.9056575,6041301.343415125
437.87746860000004,6041392.783635877
436.85668780000003,6041792.789530135
435.8432345,6041300.668394849
434.83702930000004,6041026.186504833
433.83799369999997,6041274.200017067
432.84605039999997,6041491.256404502
431.8611232,6041296.709906843
430.8831369,6041136.036439604
429.9120175,6041617.533773798
428.94769169999995,6041550.596887873
427.9900874,6041574.002894109
427.03913370000004,6041860.911672329
426.0947602,6041840.520439098
425.1568978,6041211.0467398185
424.22547829999996,6041627.128566503
423.3004343,6041218.876413123
422.3816994,6041186.622668778
421.4692081,6041006.537308628
420.56289569999996,6041612.982687378
419.66269850000003,6041829.388395793
418.7685535,6041473.23457386
417.8803987,6041397.682833942
416.9981727,6041559.881865707
416.12181519999996,6041457.805893559
415.25126639999996,6041423.850497401
414.38646760000006,6041431.502864973
413.5273605,6040994.173833463
412.673888,6041518.056417253
411.8259934,6041417.796459978
410.9836208,6041475.929971263
410.14671519999996,6041471.265768302
409.3152221,6041500.910402084
408.48908789999996,6041310.514242123
407.66825960000006,6041216.805565795
406.8526847,6041554.783173821
406.0423117,6041339.187923672
405.2370896,6041426.379536976
404.43696800000004,6041683.634147568
403.64189730000004,6041383.502406786
402.8518283,6041461.3048038315
402.0667126,6041445.6051102085
401.28650239999996,6041772.802948484
400.5111505,6041658.8533909675
399.7406101,6041414.448269165
398.9748353,6041675.866513139
398.2137806,6041259.989219513
397.457401,6041361.024073719
396.7056521,6041812.138075287
395.9584903,6041509.447996028
395.2158722,6041362.601715769
394.4777551,6041593.28431514
393.7440968,6041053.06173491
393.0148555,6041175.921580256
392.2899901,6041411.890625519
391.56946,6041070.214912019
390.853225,6039141.2110279985
390.1412452,6033146.965452996
389.43348169999996,6019637.803879662
388.7298955,5997596.940479052
388.03044839999995,5963457.444720839
387.3351027,5915662.288385037
386.6438209,5853075.568310052
385.95656610000003,5775124.868026967
385.2733019,5684842.332503017
384.5939922,5585728.0492500635
383.9186014,5485315.956056109
383.2470943,5386662.030899914
382.5794362,5299043.636929054
381.9155926,5224255.403720271
381.2555296,5170109.388410621
380.59921360000004,5140154.25877238
379.9466115,5136443.802296394
379.29769039999996,5159767.107065419
378.652418,5206958.100952517
378.0107622,5276429.098580956
377.37269130000004,5362758.446081324
376.73817410000004,5457684.857132743
376.1071796,5559016.224746932
375.47967719999997,5657369.037425455
374.8556368,5746367.537585171
374.2350283,5818878.720390287
373.6178223,5870296.503957119
373.0039896,5896707.303890035
372.3935012,5900404.216598183
371.78632860000005,5881188.1648633275
371.1824436,5841364.660510394
370.5818182,5785490.506817292
369.98442489999996,5719013.796388732
369.39023629999997,5649978.739173872
368.7992255,5582140.5461003985
368.2113658,5520806.702523419
367.6266307,5470348.948084688
367.0449943,5432396.85683713
366.4664305,5407749.418844222
365.89091410000003,5397724.584154946
365.3184196,5399583.577806071
364.7489221,5411306.623641363
364.18239689999996,5429508.0739054335
363.61881960000005,5454177.594672834
363.058166,5480118.982813873
362.50041219999997,5506063.359469972
361.94553460000003,5530948.6576403715
361.3935098,5551724.371717531
360.8443147,5570596.482370595
360.29792630000003,5584346.030325608
359.754322,5595062.209624666
359.2134795,5601709.976392407
358.6753765,5606140.803416542
358.1399912,5607156.256654891
357.6073018,5606364.948057405
357.077287,5603970.618704123
356.5499253,5599700.5092177
356.025196,5594564.681106872
355.50307799999996,5586743.082841205
354.983551,5576186.631099977
354.4665945,5562678.308435332
353.95218839999995,5546204.373743436
353.4403127,5523613.05859986
352.9309478,5494682.996872749
352.42407410000004,5460015.169660503
351.9196722,5417334.915014065
351.4177232,5366610.791842087
350.91820789999997,5305165.264173091
350.4211078,5234411.196714168
349.9264043,5153679.469126495
349.434079,5062428.963929602
348.9441137,4961443.176789235
348.45649060000005,4850991.592829829
347.97119169999996,4732884.046884728
347.48819960000003,4608110.729579511
347.0074967,4478203.4498446975
346.5290657,4346659.1706546
346.0528897,4213788.670337304
345.5789517,4083906.015884231
345.1072349,3957182.0948519805
344.6377228,3837242.360481104
344.17039889999995,3723806.368543965
343.70524710000007,3618778.314723608
343.24225110000003,3520975.054172637
342.7813952,3432054.580798255
342.32266339999995,3348301.032118052
341.8660403,3270909.061153571
341.4115102,3196400.078700928
340.959058,3123555.840983991
340.5086685,3051134.762520456
340.06032660000005,2976741.6375119314
339.6140175,2900020.8700098777
339.1697264,2819093.48613196
338.7274388,2734302.1956540374
338.28714019999995,2645024.69276598
337.8488164,2550708.083386216
337.41245310000005,2451571.025960151
336.9780363,2348000.472026635
336.5455522,2240765.1241869414
336.114987,2129257.004365089
335.686327,2014562.1031906009
335.2595588,1897563.9362369769
334.834669,1778444.1176928414
334.4116443,1658574.434969401
333.9904716,1538595.7678499413
333.57113799999996,1419812.6054833138
333.1536305,1303404.2247943042
332.73793639999997,1189572.525893513
332.32404310000004,1080280.8140838372
331.91193799999996,976157.1584231355
331.5016088,878070.4512203715
331.0930432,786811.1342010197
330.6862289,702498.5029189793
330.281154,625855.8281709907
329.8778065,556580.4989954121
329.47617460000004,495489.31382061774
329.07624649999997,441150.26560101955
328.6780106,394448.2718682442
328.2814555,354094.57378394116
327.88656960000003,319648.4629342929
327.4933418,290558.0707662481
327.1017607,265965.14737741195
326.7118154,245578.5951765821
326.32349480000005,228506.87223107036
325.93678789999996,214290.8485178377
325.5516841,202013.08911226425
325.16817260000005,191618.09504246886
324.7862428,182658.04297336657
324.40588419999995,174940.72508974813
324.0270864,167936.9421539339
323.649839,161693.2011474858
323.2741319,156105.94804306928
322.8999548,150984.72053493874
322.5272977,146020.03040706966
322.1561508,141155.44806663686
321.786504,136500.64368173233
321.4183476,132050.17535316385
321.0516719,127486.89222890939
320.6864673,123083.71541091107
320.3227243,118743.3726999951
319.96043330000003,114410.33809701842
319.5995851,110075.84561068358
319.2401704,105866.5146893342
318.8821799,101630.02145875314
318.5256045,97508.62792917287
318.1704352,93527.3588968948
317.8166631,89568.182725976
317.4642791,85718.76030016743
317.1132746,82097.08325098001
316.76364069999994,78498.10292036936
316.4153688,75095.03546900064
316.06845039999996,71864.09402590049
315.72287689999996,68757.30819941392
315.37863980000003,65770.09854930725
315.0357308,62946.8380058763
314.6941415,60225.08816302416
314.3538639,57578.48494420615
314.0148896,55096.10188040825
313.6772106,52696.74651418292
313.3408189,50396.96585129927
313.00570639999995,48141.788772212385
312.67186549999997,45990.8015451854
312.33928810000003,43917.777985803536
312.0079665,41833.90997506816
311.6778931,39920.174501175854
311.34906010000003,38042.59166174714
311.0214601,36201.39716807805
310.6950856,34454.184726567386
310.369929,32720.30343839464
310.04598300000004,31079.924802796337
309.7232403,29433.24071718166
309.4016935,27895.62869282037
309.0813356,26418.06610328607
308.7621594,24985.82452575376
308.4441577,23617.3992799045
308.1273236,22318.212157151407
307.8116501,21116.58692086188
307.49713019999996,17471.044055368533
307.18375710000004,14148.056085499758
306.871524,11131.210332139588
306.5604242,8414.556206752932
306.2504509,5943.998429853767
