wave,flux
1817.164934,-43.57553980401214
1790.1022050000001,-8.472064712688121
1763.812741,-21.14724827260592
1738.2646949999998,308.7792360223957
1713.427949,5280.418557588994
1689.273995,15979.72856672916
1665.7758310000002,32049.53015629189
1642.907862,53718.532116321374
1620.64581,80729.93038597847
1598.9666300000001,113088.01436552092
1577.8484310000001,150608.16878431902
1557.270407,193408.64921321807
1537.212767,232558.01805927997
1517.65668,267274.1241169764
1498.5842089999999,297078.86072096304
1479.978265,322742.038427186
1461.822555,343395.65511364053
1444.101535,360021.23337080475
1426.800368,371857.4575456209
1409.904887,379215.6650000168
1393.401553,386154.7282250593
1377.2774220000001,393052.7794106013
1361.520115,400244.66329205036
1346.117782,407083.7689701888
1331.059081,414031.89416523493
1316.3331449999998,420856.1058999421
1301.92956,427851.02791412716
1287.838342,434864.1354069284
1274.049912,442253.8273059995
1260.5550779999999,448651.1642640435
1247.345017,456189.3971086091
1234.4112519999999,464094.77029421646
1221.74564,471798.4934565762
1209.340352,480242.946374465
1197.187859,488335.7695249539
1185.28092,496638.6762503538
1173.612564,506267.32897413225
1162.1760800000002,515037.18543879327
1150.9650060000001,523250.2869486268
1139.973115,531903.8205308185
1129.194406,540644.9446280686
1118.623093,548990.8494563514
1108.253594,556976.3121717364
1098.0805269999998,566271.9328038523
1088.098695,575444.219735161
1078.303081,585820.6225680562
1068.688841,599298.4521773413
1059.251295,616144.6793221567
1049.9859199999999,638245.908227713
1040.8883449999998,665138.753944029
1031.9543429999999,698974.5934724029
1023.1798259999999,739090.5432273708
1014.5608390000001,784979.6975534359
1006.0935529999999,835875.2304293683
997.774265,889562.738505522
989.5993858999999,945143.0269959943
981.5654412999999,998490.9802788778
973.6690651,1049565.7591231954
965.9069952,1095671.766159553
958.2760697000001,1135767.1117332305
950.7732231000001,1168308.2462965865
943.3954827,1193168.9340367315
936.1399648,1211711.1058375791
929.0038716,1221779.0698612328
921.9844879000001,1227740.5684715244
915.0791782,1232890.1606851234
908.2853836000002,1235377.3875924936
901.6006193,1243467.1620515224
895.0224714,1257604.8788009908
888.548595,1284305.4167873352
882.1767113,1322633.272466173
875.9046055,1376290.0274001611
869.7301242999998,1454607.1871042394
863.6511742999999,1552291.5571690763
857.6657193,1679442.2053470525
851.7717787,1839848.5435214175
845.9674256000001,2037718.7072165143
840.2507849,2275262.5265346984
834.6200316000001,2554595.466454211
829.0733892000001,2875705.974162545
823.6091279,3234230.4022008
818.2255633999999,3611133.098439086
812.9210552000001,4001902.709893736
807.694005,4380416.234636222
802.5428559,4741225.949987094
797.4660904,5063260.131383352
792.4622299,5339823.766983776
787.5298327,5568042.0059329625
782.6674933999999,5737074.695976785
777.8738417999999,5856339.924940286
773.1475413,5938351.634990511
768.4872882999999,5993794.532103851
763.8918112000001,6025445.847365776
759.3598692,6034611.655745732
754.8902515999999,6042390.984679439
750.4817767999999,6036655.416606821
746.1332914,6040574.109035044
741.8436694000001,6039258.176506051
737.6118116,6039091.465615305
733.4366444,6038042.733585552
729.3171195,6040121.557483654
725.2522127999999,6042323.396495547
721.2409241,6040587.70240479
717.282276,6043186.14252534
713.3753136,6041629.120050472
709.5191037000001,6042925.318051763
705.7127343,6043193.932094747
701.9553139,6040425.482750824
698.2459709,6040030.326847768
694.5838534,6039445.816838928
690.9681281000001,6041691.3378385175
687.3979803,6043362.770118111
683.8726131,6043520.213927172
680.3912472999999,6040258.952255334
676.9531202000001,6042125.009159521
673.557486,6042227.308315025
670.2036149,6043736.006971813
666.8907926,6042319.112738403
663.6183202999999,6040634.891804605
660.3855139,6040584.078075285
657.1917038,6042983.0598289985
654.0362346,6041779.338267465
650.9184646000001,6041909.804404275
647.8377654,6041272.241198162
644.7935217999999,6044014.481525446
641.7851312999999,6041484.294434081
638.8120038,6042547.589652127
635.8735614,6040626.85189968
632.9692378999999,6040329.611236239
630.0984786,6042493.789952395
627.2607402000001,6040991.5470664
624.4554901,6041173.21883945
621.6822068,6042419.453011952
618.940379,6041904.030026852
616.2295054,6041446.515484542
613.549095,6041257.6809972115
610.8986664,6041480.929602136
608.2777476,6041797.871469312
605.6858758999999,6041246.053254058
603.1225977000001,6041493.189158348
600.5874682,6041766.349935153
598.0800512,6041357.2001371775
595.5999188999999,6041512.880068733
593.1466518,6041419.913480985
590.7198384999999,6041474.965249725
588.3190752,6041279.431812222
585.943966,6041441.10103149
583.5941226,6041228.771755287
581.2691637,6041141.535705147
578.9687155,6041019.118507963
576.692411,6041569.184181267
574.4398902,6041430.726419505
572.2107997,6041254.674646207
570.0047927,6041049.742104215
567.8215287,6041533.186225251
565.6606737000001,6041561.216660604
563.5218996,6041512.315645311
561.4048845,6041823.768863742
559.3093121,6041763.0087214
557.2348721,6041622.165522512
555.1812597,6041168.143264458
553.1481756000001,6041295.405399802
551.1353259,6041445.321433738
549.1424218999999,6041515.113347273
547.1691801,6041232.954900014
545.2153222000001,6041714.248639522
543.2805745000001,6041336.032055368
541.3646685,6041755.630042857
539.46734,6041345.61625946
537.5883299,6041166.686573735
535.7273833,6041424.9481009375
533.8842498,6041618.796132502
532.0586836,6041660.298650765
530.2504428000001,6041143.987014437
528.45929,6041121.211954203
526.6849915,6041434.994164428
524.927318,6041450.0852433685
523.186044,6041625.982675058
521.4609475999999,6041524.4748706715
519.7518110000001,6041385.884665616
518.0584200000001,6042062.079187012
516.3805639,6041667.640637593
514.7180356,6041028.326161735
513.0706316000001,6041307.693476862
511.43815149999995,6041646.22425883
509.82039860000003,6041264.011212445
508.2171791999999,6041570.533566782
506.628303,6041399.3080235785
505.05358269999994,6041420.164408019
503.4928341,6041574.398814
501.9458762,6041154.38968437
500.41253059999997,6041393.987717847
498.8926222,6041406.880991504
497.3859785,6041689.930621007
495.89242989999997,6041271.104674391
494.4118094,6041431.3425055975
492.943953,6041300.998978793
491.488699,6041424.797671291
490.04588839999997,6041565.238271872
488.6153648,6041257.5484732725
487.19697429999997,6041301.450216015
485.7905654,6041201.859825523
484.39598889999996,6041752.332777808
483.01309800000007,6041216.243094003
481.64174840000004,6041701.793745963
480.28179789999996,6041389.959685561
478.93310639999993,6041248.09667524
477.59553619999997,6041154.071955736
476.2689517,6040999.975351595
474.9532192,6041385.905232797
473.6482074,6041241.48998252
472.35378679999997,6041401.61619479
471.06982989999995,6041671.811879579
469.79621110000005,6041202.899509273
468.53280700000005,6041168.805094956
467.2794956999999,6041528.9020931935
466.0361575,6041720.599807921
464.80267410000005,6041761.35304965
463.5789295,6041208.823735931
462.364809,6041760.849529472
461.1601998,6041772.809473809
459.9649909,6040936.823560045
458.7790727,6042042.579350795
457.6023374,6041238.328078718
456.4346788,6041418.235545548
455.2759921,6042027.828617113
454.12617439999997,6041290.415913492
452.9851239,6041644.675347313
451.85274060000006,6041478.1125649875
450.7289258,6041565.514573703
449.6135822,6041485.048958939
448.5066141,6041530.90827772
447.407927,6041867.9370824685
446.317428,6041563.8138400735
445.23502520000005,6041390.144899473
444.1606283,6041289.405212953
443.0941482,6041441.351875752
442.03549699999996,6041781.928204223
440.9845882,6041077.684309801
439.9413364,6041413.029897273
438.9056575,6041582.993855905
437.87746860000004,6041353.317035092
436.85668780000003,6041407.741051111
435.8432345,6041409.008486115
434.83702930000004,6041259.663943691
433.83799369999997,6040977.730216622
432.84605039999997,6041372.131802487
431.8611232,6041624.8003280535
430.8831369,6041398.530031688
429.9120175,6041368.842543761
428.94769169999995,6041524.649910052
427.9900874,6041056.715221303
427.03913370000004,6041002.965146198
426.0947602,6041391.622719215
425.1568978,6041851.145068395
424.22547829999996,6041650.174755155
423.3004343,6041742.758277742
422.3816994,6041323.038388048
421.4692081,6041505.586302752
420.56289569999996,6041110.3318415135
419.66269850000003,6041625.316091555
418.7685535,6041110.647612917
417.8803987,6041588.63151763
416.9981727,6041860.876805833
416.12181519999996,6041276.851217322
415.25126639999996,6041335.308642573
414.38646760000006,6041622.946389436
413.5273605,6041664.4000642
412.673888,6041101.256170657
411.8259934,6041158.104722777
410.9836208,6041423.849066235
410.14671519999996,6041859.879566346
409.3152221,6041414.391883175
408.48908789999996,6041303.187922149
407.66825960000006,6041396.073992167
406.8526847,6041526.6342271175
406.0423117,6041446.189798144
405.2370896,6041172.699507022
404.43696800000004,6041515.021174387
403.64189730000004,6041329.792088624
402.8518283,6041564.265100557
402.0667126,6042005.658807772
401.28650239999996,6041642.148886026
400.5111505,6041425.457170103
399.7406101,6041676.1799362935
398.9748353,6041636.707118405
398.2137806,6041092.173149043
397.457401,6041546.739045051
396.7056521,6041430.65138838
395.9584903,6040718.391158674
395.2158722,6042110.413549515
394.4777551,6041527.0463224575
393.7440968,6041094.744235834
393.0148555,6041390.935571457
392.2899901,6041298.839148095
391.56946,6041881.183025359
390.853225,6041602.497814663
390.1412452,6041519.839334883
389.43348169999996,6041418.403719623
388.7298955,6041079.195156779
388.03044839999995,6041447.226687235
387.3351027,6041232.929944345
386.6438209,6041590.950068032
385.95656610000003,6041069.54753587
385.2733019,6041305.119610465
384.5939922,6040940.939254826
383.9186014,6041767.159230633
383.2470943,6040576.346209336
382.5794362,6041108.469140901
381.9155926,6041561.271767678
381.2555296,6040905.5822736025
380.59921360000004,6041191.426164527
379.9466115,6041629.126258424
379.29769039999996,6041113.466056642
378.652418,6041303.131613922
378.0107622,6041284.6110143885
377.37269130000004,6041418.594178741
376.73817410000004,6040877.536518098
376.1071796,6041488.375770266
375.47967719999997,6041489.2603659015
374.8556368,6041319.131847423
374.2350283,6041719.774355909
373.6178223,6041472.005074387
373.0039896,6041651.300147353
372.3935012,6041187.557925533
371.78632860000005,6041775.227901315
371.1824436,6041231.0603584675
370.5818182,6041509.674077287
369.98442489999996,6040987.715404462
369.39023629999997,6041384.658026711
368.7992255,6041434.199837688
368.2113658,6041565.019032321
367.6266307,6040912.183365662
367.0449943,6041524.916594543
366.4664305,6041890.100084643
365.89091410000003,6041741.042493068
365.3184196,6041389.220599274
364.7489221,6041627.299627151
364.18239689999996,6041580.4560569525
363.61881960000005,6040805.473775682
363.058166,6041478.256050712
362.50041219999997,6041572.969676385
361.94553460000003,6042110.90828181
361.3935098,6041184.655461589
360.8443147,6041275.099094359
360.29792630000003,6041575.70544439
359.754322,6041341.219811106
359.2134795,6041522.177032289
358.6753765,6041739.716283541
358.1399912,6041635.868367434
357.6073018,6041267.7621799335
357.077287,6038088.39201901
356.5499253,6029201.012489108
356.025196,6010748.583258787
355.50307799999996,5981098.301205333
354.983551,5935066.419621653
354.4665945,5869447.746221808
353.95218839999995,5780954.171804125
353.4403127,5666819.894652986
352.9309478,5528029.279831188
352.42407410000004,5366035.353456716
351.9196722,5184997.83049715
351.4177232,4986115.684364433
350.91820789999997,4773654.821302951
350.4211078,4550985.153469456
349.9264043,4320650.57737749
349.434079,4087129.760134011
348.9441137,3851715.3819361706
348.45649060000005,3616938.36491933
347.97119169999996,3383010.202059207
347.48819960000003,3152584.188446245
347.0074967,2926526.8330197143
346.5290657,2706935.9341081656
346.0528897,2495086.624043901
345.5789517,2291593.941824355
345.1072349,2098540.3651913092
344.6377228,1916810.8748826808
344.17039889999995,1746481.3090013212
343.70524710000007,1588206.9952208938
343.24225110000003,1441672.724007694
342.7813952,1307229.1970892665
342.32266339999995,1184282.8074205138
341.8660403,1072623.4121115815
341.4115102,971496.0834143348
340.959058,880382.256890035
340.5086685,798188.7183309337
340.06032660000005,724267.8997404032
339.6140175,658303.0393836654
339.1697264,599682.8021982848
338.7274388,548434.077947175
338.28714019999995,503105.906241133
337.8488164,463327.425347561
337.41245310000005,428928.1748971601
336.9780363,399246.11062407226
336.5455522,373381.8312521991
336.114987,350854.1601648878
335.686327,331334.45614611893
335.2595588,314224.30140022107
334.834669,299123.2746231706
334.4116443,285906.5088006838
333.9904716,273832.8475900083
333.57113799999996,262844.0764605405
333.1536305,252879.3799791029
332.73793639999997,243638.80406846642
332.32404310000004,234837.98865365647
331.91193799999996,226620.66400465785
331.5016088,218818.29303554847
331.0930432,211399.06773398464
330.6862289,204372.28733004932
330.281154,197558.3655665853
329.8778065,191032.3682316329
329.47617460000004,184787.7801052494
329.07624649999997,178746.94662998698
328.6780106,173120.327625804
328.2814555,167132.72906303094
327.88656960000003,160824.25735920088
327.4933418,154105.72605676865
327.1017607,147038.64504633163
326.7118154,139580.7862028254
326.32349480000005,131647.62487949705
325.93678789999996,123325.01746832588
325.5516841,114731.41479561408
325.16817260000005,106476.98360736696
324.7862428,98953.94365731641
324.40588419999995,92313.73173177686
324.0270864,86464.71702628343
323.649839,81361.12469710532
323.2741319,77135.38347205274
322.8999548,73590.05547417018
322.5272977,70812.18611278609
322.1561508,68415.18534514177
321.786504,66126.10522465245
321.4183476,63888.75340699865
321.0516719,61617.52814439481
320.6864673,59476.02244636451
320.3227243,57304.67053158308
319.96043330000003,55193.195751045765
319.5995851,53099.39440509418
319.2401704,50974.81493976533
318.8821799,48913.29257187199
318.5256045,46840.053269001786
318.1704352,44767.69782474544
317.8166631,42662.87358399436
317.4642791,40692.11593554753
317.1132746,38653.722817891314
316.76364069999994,36661.562659361916
316.4153688,34682.323756349695
316.06845039999996,32667.041351946948
315.72287689999996,30717.797695764253
315.37863980000003,28865.503888738807
315.0357308,27042.45491581481
314.6941415,25204.554563632606
314.3538639,23436.002227043653
314.0148896,21746.772175762493
313.6772106,20108.921574665626
313.3408189,18560.6092222133
313.00570639999995,17020.866851534982
312.67186549999997,15572.024118543233
312.33928810000003,14215.956218317939
312.0079665,12921.183953214551
311.6778931,11691.11588613952
311.34906010000003,10555.863943763632
311.0214601,9473.691543501493
310.6950856,8469.757690261647
310.369929,7537.295176910003
310.04598300000004,6670.248590254243
309.7232403,5858.8490095020115
309.4016935,5122.532602817301
309.0813356,4446.855306515379
308.7621594,3831.2388952000483
308.4441577,3288.8823621330507
308.1273236,2795.6813597119285
307.8116501,2374.176260650689
307.49713019999996,1767.040924530453
307.18375710000004,1272.1669104958307
306.871524,878.8291817742136
306.5604242,574.3437221012167
306.2504509,342.71364447836004
