wave,flux
1817.164934,-1.5979374060739342
1790.1022050000001,-2.036840175399681
1763.812741,1.1728617309414744
1738.2646949999998,34.06137311578346
1713.427949,116.12409655626269
1689.273995,260.0255657058338
1665.7758310000002,460.35421440490506
1642.907862,720.608314155219
1620.64581,1034.5459421979365
1598.9666300000001,1397.052701315281
1577.8484310000001,1810.8070503906426
1557.270407,2230.670708219957
1537.212767,2590.711658537892
1517.65668,2911.4332379185844
1498.5842089999999,3179.963650482965
1479.978265,3387.648456414387
1461.822555,3559.6973087854076
1444.101535,3681.052217169074
1426.800368,3750.5179088091704
1409.904887,3796.4186494998107
1393.401553,3842.675827283319
1377.2774220000001,3893.24159709697
1361.520115,3945.3089068838462
1346.117782,3995.5365611793945
1331.059081,4045.8071819903194
1316.3331449999998,4107.532191758875
1301.92956,4149.540496495908
1287.838342,4202.673093311676
1274.049912,4253.694451441116
1260.5550779999999,4320.758695316151
1247.345017,4362.6617810823545
1234.4112519999999,4423.211284560329
1221.74564,4474.310072049433
1209.340352,4528.38541805183
1197.187859,4698.931224306323
1185.28092,4985.976644183779
1173.612564,5371.526780387236
1162.1760800000002,5874.19778897045
1150.9650060000001,6499.022311787393
1139.973115,7234.750373508316
1129.194406,8073.144991969536
1118.623093,9017.19653988615
1108.253594,9877.190056344665
1098.0805269999998,10628.378104897856
1088.098695,11295.969770075513
1078.303081,11882.48651926223
1068.688841,12439.25064854825
1059.251295,13115.83337753017
1049.9859199999999,14028.19149456902
1040.8883449999998,15102.544501433988
1031.9543429999999,16733.899631667093
1023.1798259999999,18916.148366744328
1014.5608390000001,21551.83971252913
1006.0935529999999,24769.451465387323
997.774265,28435.57297884895
989.5993858999999,32424.699146157232
981.5654412999999,36841.53959973288
973.6690651,41583.69856750523
965.9069952,46344.07649432073
958.2760697000001,51187.59346826344
950.7732231000001,56037.744715111934
943.3954827,61153.81982573601
936.1399648,66486.85560048466
929.0038716,72253.24325879915
921.9844879000001,78009.51308926985
915.0791782,83916.65900942041
908.2853836000002,90007.93390880141
901.6006193,96232.18680233668
895.0224714,102683.88800716461
888.548595,109374.94114122918
882.1767113,115700.1379548478
875.9046055,121712.37610131355
869.7301242999998,127885.23602016481
863.6511742999999,133973.17022526098
857.6657193,140013.92839449295
851.7717787,146474.9597185406
845.9674256000001,152759.57941091212
840.2507849,159256.03554020752
834.6200316000001,165961.85100311908
829.0733892000001,173070.18273877408
823.6091279,180276.33218779953
818.2255633999999,187802.90700221143
812.9210552000001,196295.0839565468
807.694005,205411.8171449297
802.5428559,215394.30241907685
797.4660904,226990.0835291622
792.4622299,239511.43318667004
787.5298327,253210.13335329192
782.6674933999999,269844.263952126
777.8738417999999,288388.9528070617
773.1475413,308920.90548546705
768.4872882999999,331568.15780512185
763.8918112000001,356186.4412921667
759.3598692,383333.39265080576
754.8902515999999,412596.4146852802
750.4817767999999,443232.2013663733
746.1332914,472894.933756596
741.8436694000001,501879.9024577053
737.6118116,528087.7530661782
733.4366444,552429.1079931222
729.3171195,575657.1902803399
725.2522127999999,595534.2894630178
721.2409241,619171.4036200736
717.282276,649565.5498123034
713.3753136,692100.6944696768
709.5191037000001,752320.4967284262
705.7127343,837710.5293981894
701.9553139,954114.0958095724
698.2459709,1105216.060489187
694.5838534,1291601.4913469176
690.9681281000001,1512946.048250283
687.3979803,1764101.9537261159
683.8726131,2035463.5353434992
680.3912472999999,2317107.9004400233
676.9531202000001,2593816.111924211
673.557486,2853063.5383247794
670.2036149,3077730.875619836
666.8907926,3256290.813920048
663.6183202999999,3381279.012353098
660.3855139,3445208.9398578694
657.1917038,3449117.796976996
654.0362346,3395522.6669417988
650.9184646000001,3294546.567540205
647.8377654,3154921.611416867
644.7935217999999,2993541.501978767
641.7851312999999,2821446.738545155
638.8120038,2652448.8263720805
635.8735614,2497023.5434770216
632.9692378999999,2362357.5317105344
630.0984786,2254015.4526589536
627.2607402000001,2177039.403577393
624.4554901,2130035.745836416
621.6822068,2117406.9980126624
618.940379,2142469.339933755
616.2295054,2209939.040495038
613.549095,2329673.7518335325
610.8986664,2513175.963420235
608.2777476,2758210.9813376395
605.6858758999999,3058186.1608625883
603.1225977000001,3405728.0661893194
600.5874682,3788349.806221354
598.0800512,4190697.2568678916
595.5999188999999,4592493.424233327
593.1466518,4966142.358591609
590.7198384999999,5282775.2749335
588.3190752,5537485.813716734
585.943966,5733600.824376281
583.5941226,5874974.448621308
581.2691637,5967572.523843235
578.9687155,6018664.701144116
576.692411,6038568.002949629
574.4398902,6041704.712316662
572.2107997,6041335.432141422
570.0047927,6041193.826657487
567.8215287,6041436.444039234
565.6606737000001,6041371.22434589
563.5218996,6041460.38342975
561.4048845,6041677.959659143
559.3093121,6041423.4643734135
557.2348721,6041859.6691445885
555.1812597,6041554.6483364785
553.1481756000001,6041488.13628027
551.1353259,6041766.931290843
549.1424218999999,6041237.680529103
547.1691801,6041024.26922387
545.2153222000001,6041421.84044174
543.2805745000001,6041282.24049334
541.3646685,6041627.756218943
539.46734,6041761.509144752
537.5883299,6041562.96095302
535.7273833,6041250.55648828
533.8842498,6041553.933954422
532.0586836,6041421.630364065
530.2504428000001,6041210.247913776
528.45929,6041042.996138916
526.6849915,6041281.146102578
524.927318,6041672.888473951
523.186044,6041728.816611215
521.4609475999999,6041059.316614221
519.7518110000001,6041032.271734831
518.0584200000001,6041197.4936850965
516.3805639,6041604.579404573
514.7180356,6041530.851226706
513.0706316000001,6041334.239642737
511.43815149999995,6041098.7860937575
509.82039860000003,6041373.217944861
508.2171791999999,6041450.765418485
506.628303,6041390.536577356
505.05358269999994,6041236.530326667
503.4928341,6041206.39051475
501.9458762,6041233.654560748
500.41253059999997,6041516.314022107
498.8926222,6041738.485120871
497.3859785,6041048.5448761275
495.89242989999997,6041620.217627855
494.4118094,6041543.65792871
492.943953,6041722.548213729
491.488699,6041249.165344725
490.04588839999997,6041467.495776889
488.6153648,6041060.36049676
487.19697429999997,6041222.610989276
485.7905654,6041165.313046288
484.39598889999996,6041518.209990027
483.01309800000007,6041550.628490212
481.64174840000004,6041392.437533147
480.28179789999996,6041785.768232336
478.93310639999993,6041232.443735003
477.59553619999997,6041365.678646933
476.2689517,6041248.023870956
474.9532192,6041576.506238859
473.6482074,6041724.248839515
472.35378679999997,6041730.995240534
471.06982989999995,6041303.862506557
469.79621110000005,6042119.793853495
468.53280700000005,6041172.889421736
467.2794956999999,6041533.474230252
466.0361575,6041203.434400207
464.80267410000005,6041839.368093735
463.5789295,6041060.895411554
462.364809,6041567.768463872
461.1601998,6041435.919579418
459.9649909,6041594.592343503
458.7790727,6041562.82522045
457.6023374,6041521.827112929
456.4346788,6041527.369818556
455.2759921,6042045.695204917
454.12617439999997,6041247.795461752
452.9851239,6041774.699616581
451.85274060000006,6041353.62107083
450.7289258,6041237.490718623
449.6135822,6041667.855878169
448.5066141,6041026.485180317
447.407927,6041502.302515789
446.317428,6041654.826680115
445.23502520000005,6041181.448385612
444.1606283,6041568.10675603
443.0941482,6041600.70742947
442.03549699999996,6040716.78706021
440.9845882,6041482.60738691
439.9413364,6041406.3020503335
438.9056575,6041403.580494787
437.87746860000004,6040986.940152693
436.85668780000003,6041281.9885183275
435.8432345,6041409.999346679
434.83702930000004,6041470.880105649
433.83799369999997,6041372.393542873
432.84605039999997,6041348.975990029
431.8611232,6041027.236792536
430.8831369,6041028.698975735
429.9120175,6041444.300153629
428.94769169999995,6041666.0700419275
427.9900874,6041475.935824636
427.03913370000004,6040946.379803918
426.0947602,6041222.209721355
425.1568978,6041631.714413468
424.22547829999996,6041374.035516181
423.3004343,6041604.1857944075
422.3816994,6041488.457524138
421.4692081,6041102.77155969
420.56289569999996,6041158.6414072765
419.66269850000003,6041481.23353322
418.7685535,6041477.418253421
417.8803987,6041010.845688351
416.9981727,6041367.927446812
416.12181519999996,6041264.149062816
415.25126639999996,6041033.634765044
414.38646760000006,6041287.282978117
413.5273605,6041577.161165766
412.673888,6041621.223202335
411.8259934,6041636.457898124
410.9836208,6041352.589109203
410.14671519999996,6041615.602977385
409.3152221,6041713.317129977
408.48908789999996,6041212.45266388
407.66825960000006,6041461.913682277
406.8526847,6041815.301853913
406.0423117,6041375.78448981
405.2370896,6041302.063458994
404.43696800000004,6041907.568318732
403.64189730000004,6041348.389345118
402.8518283,6041410.996555973
402.0667126,6041525.217329055
401.28650239999996,6041272.569522163
400.5111505,6041870.908832539
399.7406101,6041349.835594118
398.9748353,6041041.34096724
398.2137806,6041329.564359191
397.457401,6041439.865752173
396.7056521,6041343.4807660375
395.9584903,6041496.728324182
395.2158722,6041485.864563703
394.4777551,6040819.96131797
393.7440968,6041044.064837703
393.0148555,6041560.667435281
392.2899901,6040803.845568311
391.56946,6041645.534488956
390.853225,6041435.219833422
390.1412452,6040690.364043886
389.43348169999996,6041179.248638115
388.7298955,6041580.0821643025
388.03044839999995,6041537.942040742
387.3351027,6041053.218077652
386.6438209,6041742.626950808
385.95656610000003,6042205.029676024
385.2733019,6041407.192872621
384.5939922,6041324.03400322
383.9186014,6041521.121231096
383.2470943,6041379.917317897
382.5794362,6041447.563190731
381.9155926,6042128.3377484465
381.2555296,6040667.592430183
380.59921360000004,6041677.765543046
379.9466115,6041333.071316888
379.29769039999996,6041929.0258463435
378.652418,6041264.93947575
378.0107622,6040917.570099803
377.37269130000004,6041128.476009225
376.73817410000004,6041925.894666124
376.1071796,6041204.967076095
375.47967719999997,6040608.854527556
374.8556368,6041320.268179356
374.2350283,6041839.687767607
373.6178223,6041334.78612586
373.0039896,6041240.47654555
372.3935012,6041016.401614835
371.78632860000005,6041366.297144119
371.1824436,6041344.311263904
370.5818182,6041134.29933491
369.98442489999996,6041653.585727553
369.39023629999997,6041678.2019654475
368.7992255,6041404.487219713
368.2113658,6040979.362840752
367.6266307,6041502.170293277
367.0449943,6041129.283084832
366.4664305,6041550.717839053
365.89091410000003,6041237.9780473765
365.3184196,6041473.519020674
364.7489221,6040925.519859706
364.18239689999996,6041621.310521581
363.61881960000005,6041440.384912837
363.058166,6041128.273884542
362.50041219999997,6041497.549604419
361.94553460000003,6041741.565794627
361.3935098,6041099.223275789
360.8443147,6041144.0405883035
360.29792630000003,6041406.461031062
359.754322,6041362.8163727615
359.2134795,6041285.84687938
358.6753765,6041656.72116167
358.1399912,6041167.245651374
357.6073018,6041441.691800015
357.077287,6041776.742503948
356.5499253,6041274.165153205
356.025196,6040914.701998599
355.50307799999996,6041275.101820365
354.983551,6041599.48308048
354.4665945,6041710.1957506025
353.95218839999995,6041978.128638065
353.4403127,6040956.886672344
352.9309478,6041324.560690536
352.42407410000004,6041383.702360602
351.9196722,6041992.076494019
351.4177232,6041313.454498885
350.91820789999997,6041462.555622059
350.4211078,6041868.3007215075
349.9264043,6041511.637593188
349.434079,6040822.437568474
348.9441137,6040915.56927513
348.45649060000005,6041148.505133002
347.97119169999996,6041390.082319558
347.48819960000003,6041958.781889801
347.0074967,6041461.63109886
346.5290657,6041440.774171068
346.0528897,6041466.726373209
345.5789517,6040877.753309825
345.1072349,6041046.943173532
344.6377228,6041389.877805035
344.17039889999995,6041216.220550093
343.70524710000007,6041475.294357203
343.24225110000003,6041432.648600288
342.7813952,6041395.276548039
342.32266339999995,6032665.353938738
341.8660403,6005524.3672784725
341.4115102,5949379.518540058
340.959058,5856106.877695963
340.5086685,5714495.15283661
340.06032660000005,5518051.168762446
339.6140175,5258084.635298805
339.1697264,4931209.771427895
338.7274388,4549795.0691846125
338.28714019999995,4129172.4163929014
337.8488164,3687583.927519899
337.41245310000005,3243652.22903996
336.9780363,2813987.929005535
336.5455522,2412062.5068995096
336.114987,2052133.022084107
335.686327,1743855.6725290737
335.2595588,1487410.6742291898
334.834669,1278205.8113227012
334.4116443,1111269.0073933827
333.9904716,979525.7946187695
333.57113799999996,876737.1244619866
333.1536305,795479.174242157
332.73793639999997,732208.2777629731
332.32404310000004,680182.8106483152
331.91193799999996,637805.9295532103
331.5016088,601555.0878516682
331.0930432,570415.4109165573
330.6862289,543269.8248715934
330.281154,518999.29791505495
329.8778065,497439.4167862092
329.47617460000004,477636.89641827205
329.07624649999997,459681.714640006
328.6780106,443401.2686988
328.2814555,428800.74347124976
327.88656960000003,414928.32019015646
327.4933418,401922.6702561759
327.1017607,389877.8111929185
326.7118154,378262.681860225
326.32349480000005,367120.31908598065
325.93678789999996,356488.5326991725
325.5516841,345943.5236514393
325.16817260000005,335196.738634029
324.7862428,324517.9343571993
324.40588419999995,314163.20738306426
324.0270864,304032.4391005592
323.649839,293800.4496563257
323.2741319,283608.65060122014
322.8999548,273756.2981774904
322.5272977,263735.4845492557
322.1561508,254038.4218632697
321.786504,244218.6510379645
321.4183476,234725.25857595145
321.0516719,225052.33301370262
320.6864673,215434.94447420444
320.3227243,206023.9617377103
319.96043330000003,196696.34858489266
319.5995851,187810.19880461102
319.2401704,179052.01154960375
318.8821799,170620.45103519512
318.5256045,162289.04462629085
318.1704352,154301.72603769976
317.8166631,146534.68360381605
317.4642791,138884.6448287671
317.1132746,131535.59904563328
316.76364069999994,124137.96017580653
316.4153688,116967.35041304733
316.06845039999996,110185.79961205156
315.72287689999996,103927.76240557844
315.37863980000003,97873.19741509086
315.0357308,92499.49842070306
314.6941415,87345.71569595947
314.3538639,82842.08181471843
314.0148896,78649.33232684611
313.6772106,74855.29454176781
313.3408189,71532.35017119581
313.00570639999995,68319.28661008229
312.67186549999997,65388.62476928692
312.33928810000003,62622.89693244392
312.0079665,59973.45150119664
311.6778931,57351.521984279876
311.34906010000003,54703.837991729226
311.0214601,51926.924038717785
310.6950856,49078.77464022957
310.369929,46171.781457606994
310.04598300000004,43304.78438981623
309.7232403,40325.698446146525
309.4016935,37314.25467272585
309.0813356,34492.625913471136
308.7621594,31820.95702511248
308.4441577,29502.45548284422
308.1273236,27375.888470167247
307.8116501,25467.46097477771
307.49713019999996,20758.67572879569
307.18375710000004,16919.38762771211
306.871524,13505.145853040342
306.5604242,10359.28012201413
306.2504509,7503.889942897992
