wave,flux
1817.164934,-1.5206136344637633
1790.1022050000001,-0.06816788023623534
1763.812741,2.069077546831415
1738.2646949999998,-1.0211875926613465
1713.427949,355.56401981648577
1689.273995,1074.2082726156452
1665.7758310000002,2137.5887453806868
1642.907862,3553.730725798644
1620.64581,5314.556057740214
1598.9666300000001,7415.57935947158
1577.8484310000001,9847.251058088708
1557.270407,12589.530846235139
1537.212767,15035.355138712726
1517.65668,17147.362901106335
1498.5842089999999,18951.3037647742
1479.978265,20464.72388532749
1461.822555,21641.549206051553
1444.101535,22525.038443309062
1426.800368,23127.47179350813
1409.904887,23429.69522482707
1393.401553,23716.12764937674
1377.2774220000001,24010.878869605593
1361.520115,24319.51483462017
1346.117782,24640.357703979276
1331.059081,24968.94206262744
1316.3331449999998,25279.651766825402
1301.92956,25597.85212054439
1287.838342,25936.07922968621
1274.049912,26252.010921600577
1260.5550779999999,26588.74764925229
1247.345017,26920.468068793558
1234.4112519999999,27250.497441909552
1221.74564,27601.589524453346
1209.340352,27948.40538723252
1197.187859,28283.86650305797
1185.28092,28621.401807191094
1173.612564,28975.151929321702
1162.1760800000002,29326.086321452178
1150.9650060000001,29680.79798627165
1139.973115,30030.936176954037
1129.194406,30361.933974440264
1118.623093,30748.320211987648
1108.253594,31081.047240647982
1098.0805269999998,31453.9474392566
1088.098695,31855.012358473607
1078.303081,32401.76839459408
1068.688841,33107.37007326381
1059.251295,34045.54536464013
1049.9859199999999,35297.01136819417
1040.8883449999998,36877.637992332166
1031.9543429999999,38959.7087748214
1023.1798259999999,41373.47281767975
1014.5608390000001,44134.42080905775
1006.0935529999999,47237.65475702453
997.774265,50497.95205360225
989.5993858999999,53878.50466301772
981.5654412999999,57049.038587111834
973.6690651,60045.485407973356
965.9069952,62720.340100534326
958.2760697000001,64961.39711987534
950.7732231000001,66715.81084281745
943.3954827,67919.7810344704
936.1399648,68667.46993863105
929.0038716,68925.78035848685
921.9844879000001,69050.35305236625
915.0791782,68825.46268831119
908.2853836000002,68793.38533599304
901.6006193,68861.00014203429
895.0224714,69444.31320508216
888.548595,72876.02309726557
882.1767113,78851.65967881607
875.9046055,88043.57198468117
869.7301242999998,100324.59928730814
863.6511742999999,116021.62978812798
857.6657193,135379.1182887335
851.7717787,159032.55677959774
845.9674256000001,187047.286199712
840.2507849,215185.9850343285
834.6200316000001,243915.4955136779
829.0733892000001,275039.0137309679
823.6091279,306125.6710402046
818.2255633999999,337759.40380357235
812.9210552000001,368925.8626132059
807.694005,398735.0890981894
802.5428559,426311.20425603923
797.4660904,455440.0927683136
792.4622299,486227.2391122519
787.5298327,520636.0384115828
782.6674933999999,561541.4089986865
777.8738417999999,611497.8067576932
773.1475413,676946.0852445308
768.4872882999999,761375.9047111839
763.8918112000001,866608.6363612408
759.3598692,991636.4705115124
754.8902515999999,1137353.2637039195
750.4817767999999,1295625.7552195105
746.1332914,1462346.98774564
741.8436694000001,1623774.4620498538
737.6118116,1778605.8070739286
733.4366444,1912638.625491918
729.3171195,2029911.3818968982
725.2522127999999,2134078.774122249
721.2409241,2236332.931549531
717.282276,2363358.6221370455
713.3753136,2530453.8220967557
709.5191037000001,2751224.0454094247
705.7127343,3020292.1427896107
701.9553139,3345466.906317362
698.2459709,3719843.121738664
694.5838534,4129741.749665703
690.9681281000001,4545817.694416833
687.3979803,4932969.881353895
683.8726131,5262933.615253033
680.3912472999999,5529953.045715645
676.9531202000001,5737650.00343348
673.557486,5886419.067904139
670.2036149,5978883.122942418
666.8907926,6026373.847432726
663.6183202999999,6041715.260325105
660.3855139,6040805.670414315
657.1917038,6040642.261408604
654.0362346,6040558.312527869
650.9184646000001,6031328.385211578
647.8377654,5993219.921437567
644.7935217999999,5911140.952104819
641.7851312999999,5773350.928161686
638.8120038,5574496.032124478
635.8735614,5311472.1433534715
632.9692378999999,4978031.634652354
630.0984786,4576178.572842319
627.2607402000001,4124180.6048205895
624.4554901,3656418.7491956237
621.6822068,3202896.944251165
618.940379,2779450.48365595
616.2295054,2400953.9865983133
613.549095,2072857.987698437
610.8986664,1799701.447176911
608.2777476,1584654.833039388
605.6858758999999,1422372.154013627
603.1225977000001,1298515.6725876885
600.5874682,1203263.5419277514
598.0800512,1131269.079225005
595.5999188999999,1080937.0334996295
593.1466518,1052490.211923488
590.7198384999999,1046375.2390759905
588.3190752,1063054.1676020531
585.943966,1103103.769392756
583.5941226,1163859.5594883102
581.2691637,1244169.021950942
578.9687155,1340490.7839493838
576.692411,1450267.336661889
574.4398902,1570981.6193298216
572.2107997,1701187.27385907
570.0047927,1841456.38834276
567.8215287,1994802.6466537244
565.6606737000001,2167322.482064585
563.5218996,2368775.7945843786
561.4048845,2613093.3540810943
559.3093121,2897579.53723595
557.2348721,3218735.1007788624
555.1812597,3570320.42625141
553.1481756000001,3945264.2660784204
551.1353259,4331226.6010776935
549.1424218999999,4710220.366067641
547.1691801,5060221.770993939
545.2153222000001,5352275.548684134
543.2805745000001,5585930.110997873
541.3646685,5765316.022545809
539.46734,5893959.382322994
537.5883299,5977583.999228634
535.7273833,6023631.2060476765
533.8842498,6040437.439386481
532.0586836,6041297.710924229
530.2504428000001,6041712.639958413
528.45929,6041347.172974125
526.6849915,6041442.457497157
524.927318,6041369.272651682
523.186044,6041824.43046983
521.4609475999999,6041741.308159552
519.7518110000001,6042002.34370175
518.0584200000001,6041335.4241347825
516.3805639,6041582.911994332
514.7180356,6041299.881574576
513.0706316000001,6041455.143690352
511.43815149999995,6041285.17655559
509.82039860000003,6041249.927269196
508.2171791999999,6041607.683636777
506.628303,6041066.873306397
505.05358269999994,6041663.687230223
503.4928341,6041172.249446763
501.9458762,6041235.779486494
500.41253059999997,6041756.967581333
498.8926222,6041586.5910657775
497.3859785,6041464.855361645
495.89242989999997,6041145.483775986
494.4118094,6041554.172392038
492.943953,6041358.877745685
491.488699,6041314.32580076
490.04588839999997,6041455.20800408
488.6153648,6038594.056477136
487.19697429999997,6022249.319115581
485.7905654,5983150.741427862
484.39598889999996,5912430.895278073
483.01309800000007,5801952.11035744
481.64174840000004,5644346.12427471
480.28179789999996,5432625.19925411
478.93310639999993,5161030.0143922465
477.59553619999997,4831717.98396677
476.2689517,4464322.603884346
474.9532192,4077052.5925423736
473.6482074,3685313.652045878
472.35378679999997,3305601.299406511
471.06982989999995,2952465.881156032
469.79621110000005,2638383.776668773
468.53280700000005,2372401.576239212
467.2794956999999,2158223.8481004145
466.0361575,1987510.0148687344
464.80267410000005,1851734.9809260871
463.5789295,1742839.9807830425
462.364809,1652980.987056246
461.1601998,1577763.5931341143
459.9649909,1511659.511328162
458.7790727,1451904.2233124604
457.6023374,1398126.336253102
456.4346788,1350775.3188942196
455.2759921,1311063.2234178856
454.12617439999997,1280107.283741394
452.9851239,1258811.730638328
451.85274060000006,1247224.4171091393
450.7289258,1245340.3217948943
449.6135822,1252971.2138304366
448.5066141,1269415.5014992105
447.407927,1293605.1254481466
446.317428,1324232.4579188614
445.23502520000005,1359880.859682798
444.1606283,1399502.5426945616
443.0941482,1441871.108341436
442.03549699999996,1486044.0899868575
440.9845882,1532309.835896246
439.9413364,1581635.7597862044
438.9056575,1637442.9593277688
437.87746860000004,1702835.4706134188
436.85668780000003,1780816.1998198428
435.8432345,1875121.1706292925
434.83702930000004,1988249.0627236485
433.83799369999997,2123368.801349626
432.84605039999997,2282583.2534158905
431.8611232,2464110.878546813
430.8831369,2667965.4423544668
429.9120175,2893020.9517301423
428.94769169999995,3140899.9203281845
427.9900874,3414386.386994365
427.03913370000004,3705997.8161158725
426.0947602,4006846.3373383568
425.1568978,4311014.14779363
424.22547829999996,4611455.881618371
423.3004343,4901277.931751928
422.3816994,5172695.222188281
421.4692081,5412914.123382387
420.56289569999996,5606385.1725453
419.66269850000003,5757471.5410229815
418.7685535,5870735.283534822
417.8803987,5950833.825936625
416.9981727,6003022.841668922
416.12181519999996,6031299.130444228
415.25126639999996,6041405.974279904
414.38646760000006,6041384.771207343
413.5273605,6041279.801482183
412.673888,6041581.532026825
411.8259934,6041342.738037991
410.9836208,6041278.328045359
410.14671519999996,6041338.296033135
409.3152221,6041186.014476078
408.48908789999996,6041825.942657093
407.66825960000006,6041104.933049938
406.8526847,6040870.719457441
406.0423117,6041459.931431288
405.2370896,6041609.775981106
404.43696800000004,6041351.384374321
403.64189730000004,6041042.765763477
402.8518283,6041222.369427168
402.0667126,6041761.01859533
401.28650239999996,6041533.3650955465
400.5111505,6042215.32605804
399.7406101,6041743.420460262
398.9748353,6041568.591561935
398.2137806,6041399.577578758
397.457401,6041338.478354065
396.7056521,6041336.300456751
395.9584903,6041878.361169058
395.2158722,6040844.752492202
394.4777551,6041197.73038129
393.7440968,6041669.421405222
393.0148555,6041231.73130761
392.2899901,6041202.917692727
391.56946,6041208.294877387
390.853225,6041560.3438318875
390.1412452,6041567.295955234
389.43348169999996,6041163.357688452
388.7298955,6041352.9398419075
388.03044839999995,6041677.530700545
387.3351027,6041967.940487392
386.6438209,6041331.524115114
385.95656610000003,6041335.7540066065
385.2733019,6041655.557667493
384.5939922,6041522.870955957
383.9186014,6041996.094895353
383.2470943,6041246.1598808635
382.5794362,6040834.725769181
381.9155926,6041390.384455533
381.2555296,6041062.560435421
380.59921360000004,6041272.573453807
379.9466115,6041252.1390877385
379.29769039999996,6041606.331782016
378.652418,6041257.798891095
378.0107622,6041415.115783789
377.37269130000004,6041506.266852537
376.73817410000004,6041259.355948265
376.1071796,6040935.071382705
375.47967719999997,6041228.77221842
374.8556368,6041302.768611821
374.2350283,6041173.536877799
373.6178223,6041844.597848138
373.0039896,6040984.440735447
372.3935012,6041694.965905735
371.78632860000005,6040963.757892232
371.1824436,6041537.987763838
370.5818182,6041024.424444746
369.98442489999996,6041479.42629554
369.39023629999997,6041082.448362396
368.7992255,6041364.574531673
368.2113658,6041235.608252914
367.6266307,6041220.959490825
367.0449943,6040545.731023655
366.4664305,6040999.9483819585
365.89091410000003,6040981.078879858
365.3184196,6040222.617896134
364.7489221,6041279.824152739
364.18239689999996,6041593.799081635
363.61881960000005,6041345.3917030115
363.058166,6041813.775124103
362.50041219999997,6041796.590318613
361.94553460000003,6041604.0328759635
361.3935098,6040745.087792456
360.8443147,6041494.88403074
360.29792630000003,6041701.47641982
359.754322,6041871.497559146
359.2134795,6041658.491111158
358.6753765,6041169.69257772
358.1399912,6041122.889845959
357.6073018,6041445.533562401
357.077287,6041096.854612214
356.5499253,6041796.699326136
356.025196,6041830.651928842
355.50307799999996,6041042.849428595
354.983551,6041355.8442781065
354.4665945,6041669.3999561425
353.95218839999995,6042098.600373671
353.4403127,6041470.849322067
352.9309478,6041677.259932082
352.42407410000004,6041376.015303252
351.9196722,6040947.391581402
351.4177232,6041505.913311156
350.91820789999997,6041400.593861696
350.4211078,6041861.073180202
349.9264043,6040876.384409508
349.434079,6041235.810836932
348.9441137,6041388.71997679
348.45649060000005,6041291.183684735
347.97119169999996,6041785.551309115
347.48819960000003,6041677.239758887
347.0074967,6041441.431237535
346.5290657,6041496.844568939
346.0528897,6041095.085255682
345.5789517,6041288.029560547
345.1072349,6041340.325396166
344.6377228,6042015.468387546
344.17039889999995,6040504.386476654
343.70524710000007,6040899.002166814
343.24225110000003,6041063.181880067
342.7813952,6041657.891794306
342.32266339999995,6041029.409528152
341.8660403,6041133.287897763
341.4115102,6041638.593756198
340.959058,6041800.615793408
340.5086685,6041825.844654517
340.06032660000005,6041302.909381508
339.6140175,6041970.3558067
339.1697264,6041422.081921304
338.7274388,6041057.943880607
338.28714019999995,6041778.350296863
337.8488164,6037867.3852343075
337.41245310000005,6015540.118267794
336.9780363,5966334.849850052
336.5455522,5879230.299022618
336.114987,5751740.029743299
335.686327,5575554.950753867
335.2595588,5348681.42984628
334.834669,5068762.031252415
334.4116443,4740132.782550394
333.9904716,4387068.882293608
333.57113799999996,4029809.601070303
333.1536305,3681221.5902118017
332.73793639999997,3353158.086575594
332.32404310000004,3053036.930082017
331.91193799999996,2786673.401576193
331.5016088,2562259.2439179285
331.0930432,2379404.010400345
330.6862289,2226202.8476806204
330.281154,2100184.226000544
329.8778065,1994038.9794945028
329.47617460000004,1905082.921056236
329.07624649999997,1829336.6385341631
328.6780106,1765204.335954053
328.2814555,1710729.1063010811
327.88656960000003,1665336.0881652543
327.4933418,1625118.028768074
327.1017607,1590813.025910505
326.7118154,1558922.1821035838
326.32349480000005,1529110.5570629332
325.93678789999996,1500093.674831094
325.5516841,1471561.8807577146
325.16817260000005,1440247.188958561
324.7862428,1408691.758484802
324.40588419999995,1373903.451384677
324.0270864,1336942.5014925196
323.649839,1298643.4153519229
323.2741319,1256736.6748271394
322.8999548,1212583.2584900062
322.5272977,1166731.3742337166
322.1561508,1119172.4728302946
321.786504,1071827.0690848695
321.4183476,1022547.7159014456
321.0516719,973765.6505954241
320.6864673,926569.8917586522
320.3227243,880539.7493304375
319.96043330000003,836276.9309835463
319.5995851,795020.464698088
319.2401704,756408.2038919658
318.8821799,719861.9553960109
318.5256045,686239.570098158
318.1704352,655515.0243820434
317.8166631,628147.2120776854
317.4642791,603396.4407136771
317.1132746,581196.2697184468
316.76364069999994,561724.5782777828
316.4153688,544366.2553122629
316.06845039999996,529487.2824495672
315.72287689999996,516143.3844618484
315.37863980000003,503057.4667457579
315.0357308,491189.7976175776
314.6941415,479483.3390038696
314.3538639,467348.4040555738
314.0148896,454359.3695768397
313.6772106,439978.78891347797
313.3408189,423989.6555610676
313.00570639999995,406790.5035891832
312.67186549999997,388794.2377870783
312.33928810000003,369676.4975807022
312.0079665,349945.0873717584
311.6778931,329890.4512815678
311.34906010000003,311066.3946195165
311.0214601,293852.52521814965
310.6950856,278093.8871449516
310.369929,264037.1947271601
310.04598300000004,251634.65099594716
309.7232403,240751.1122790016
309.4016935,231078.01294432487
309.0813356,222849.38538899075
308.7621594,215542.69466143995
308.4441577,208235.2908642433
308.1273236,201134.15307310887
307.8116501,193725.48478471703
307.49713019999996,162310.27827927296
307.18375710000004,133266.96661996926
306.871524,106225.40107963898
306.5604242,80457.24592973338
306.2504509,56698.337223813825
