wave,flux
1817.164934,1.1305959434596016
1790.1022050000001,-0.729709595375073
1763.812741,1.3883883967497597
1738.2646949999998,7.057756392177713
1713.427949,6.850309863675991
1689.273995,24.83914541450893
1665.7758310000002,43.47329516723525
1642.907862,71.41187998035959
1620.64581,103.28422701885307
1598.9666300000001,145.6461302396941
1577.8484310000001,198.03284499734204
1557.270407,253.14549841845383
1537.212767,300.28953569207283
1517.65668,351.3364029018838
1498.5842089999999,391.3469971751922
1479.978265,424.9317212442529
1461.822555,459.08273637111216
1444.101535,487.0390024862578
1426.800368,512.0624998032731
1409.904887,524.251960681412
1393.401553,552.4994130199563
1377.2774220000001,562.8046034501407
1361.520115,580.7399662074223
1346.117782,595.6410599752109
1331.059081,619.5465007390627
1316.3331449999998,638.4239703245138
1301.92956,651.8236415711792
1287.838342,674.4893304430236
1274.049912,698.9436889696426
1260.5550779999999,717.5720015336757
1247.345017,733.7162609923366
1234.4112519999999,759.7413377632571
1221.74564,782.2068028920811
1209.340352,803.6919350920539
1197.187859,827.2488606781784
1185.28092,854.4161261093508
1173.612564,877.7639925623769
1162.1760800000002,901.1413528626892
1150.9650060000001,922.1473452625252
1139.973115,947.510893561006
1129.194406,971.1526977098489
1118.623093,996.3146796209686
1108.253594,1011.88569845621
1098.0805269999998,1044.6954408306751
1088.098695,1071.8007421112159
1078.303081,1099.2277460047437
1068.688841,1127.979374523901
1059.251295,1164.0109756376767
1049.9859199999999,1209.1157355444946
1040.8883449999998,1258.4808870838601
1031.9543429999999,1315.1631294519295
1023.1798259999999,1381.9294977879572
1014.5608390000001,1453.9063308380364
1006.0935529999999,1532.097731295945
997.774265,1619.795413915252
989.5993858999999,1709.2811620943805
981.5654412999999,1801.1422022108954
973.6690651,1874.4238644592892
965.9069952,1955.752882847048
958.2760697000001,2033.6596989179345
950.7732231000001,2098.4116575336257
943.3954827,2154.9487269090946
936.1399648,2203.173968941963
929.0038716,2247.6172259626
921.9844879000001,2284.899702476532
915.0791782,2314.1938408142705
908.2853836000002,2352.747088027797
901.6006193,2399.5180946874552
895.0224714,2446.1757692730985
888.548595,2509.0924029120265
882.1767113,2592.136096276621
875.9046055,2698.20549185942
869.7301242999998,2826.109881182111
863.6511742999999,2985.9223105591204
857.6657193,3172.7035712252973
851.7717787,3427.7941001570953
845.9674256000001,3717.981892329659
840.2507849,4070.4001697191143
834.6200316000001,4492.121165105379
829.0733892000001,4966.320247942709
823.6091279,5496.380310005824
818.2255633999999,6070.255374363981
812.9210552000001,6673.337243404318
807.694005,7290.973395634102
802.5428559,7899.156651578582
797.4660904,8504.777485087468
792.4622299,9173.81601683064
787.5298327,9891.260562333437
782.6674933999999,10749.50255041356
777.8738417999999,11847.466067837628
773.1475413,13210.376725411552
768.4872882999999,15004.825372984
763.8918112000001,17225.723913974503
759.3598692,19815.284622523257
754.8902515999999,22884.18708151332
750.4817767999999,26212.537451518707
746.1332914,29801.599094500365
741.8436694000001,33371.070231590864
737.6118116,36782.92550895015
733.4366444,40018.290957087454
729.3171195,42973.71433654793
725.2522127999999,45672.67730550632
721.2409241,48486.324276077874
717.282276,51944.936426903856
713.3753136,56415.186049237855
709.5191037000001,62702.2963292432
705.7127343,71521.48489301089
701.9553139,83706.61201029546
698.2459709,99820.02416449957
694.5838534,120042.38984146106
690.9681281000001,144512.46172045873
687.3979803,173049.75615779348
683.8726131,204739.26756419122
680.3912472999999,238821.45462499434
676.9531202000001,273651.1959032723
673.557486,307710.214865208
670.2036149,339278.23472539714
666.8907926,367024.8032232976
663.6183202999999,389180.1728905773
660.3855139,404951.4972027307
657.1917038,413549.3343826257
654.0362346,414960.518252794
650.9184646000001,409506.6025501192
647.8377654,397908.18214326346
644.7935217999999,381327.4940402524
641.7851312999999,361093.9641816426
638.8120038,338699.30828989967
635.8735614,315528.34161566856
632.9692378999999,292904.62741203373
630.0984786,271786.29395552835
627.2607402000001,252926.2511367164
624.4554901,236825.5256807647
621.6822068,223478.03438644626
618.940379,212929.30658679586
616.2295054,204989.51065193047
613.549095,199064.8900126705
610.8986664,194920.25698651245
608.2777476,192071.78801931732
605.6858758999999,190174.20349472735
603.1225977000001,188914.96525560602
600.5874682,188100.68015294144
598.0800512,187484.0752073964
595.5999188999999,186990.0586585412
593.1466518,186449.76484145698
590.7198384999999,185759.00207346558
588.3190752,184921.32521752216
585.943966,183743.66071304926
583.5941226,182220.47684505765
581.2691637,180315.92486221844
578.9687155,177997.15323759464
576.692411,175374.75932376785
574.4398902,172477.57236128318
572.2107997,169384.87974884626
570.0047927,166246.9560074743
567.8215287,163232.83468123068
565.6606737000001,160405.867631979
563.5218996,157826.50724785702
561.4048845,155652.65814060517
559.3093121,153805.76232224822
557.2348721,152308.52858100805
555.1812597,151146.38280709155
553.1481756000001,150243.3819334044
551.1353259,149596.97626668325
549.1424218999999,149280.16363863894
547.1691801,149244.00317898547
545.2153222000001,149550.1953873133
543.2805745000001,150396.93053104568
541.3646685,151707.39604401524
539.46734,153626.89147478575
537.5883299,156116.1995509249
535.7273833,159169.42123436255
533.8842498,162633.59232358262
532.0586836,166475.54084313358
530.2504428000001,170663.29052146475
528.45929,175101.96303228513
526.6849915,180064.33697590578
524.927318,185757.4945887008
523.186044,192738.8042697503
521.4609475999999,201543.28261295814
519.7518110000001,212993.11004394735
518.0584200000001,227625.41054051003
516.3805639,245991.8421510093
514.7180356,268394.2781123181
513.0706316000001,294602.2918048357
511.43815149999995,324001.9363797886
509.82039860000003,355462.5065657904
508.2171791999999,387579.10093314963
506.628303,418428.52454515523
505.05358269999994,446222.34167470323
503.4928341,469120.2659315871
501.9458762,485568.59412652365
500.41253059999997,494489.0657014301
498.8926222,495374.4967825261
497.3859785,488362.2502076158
495.89242989999997,474001.7216411176
494.4118094,453403.66145444993
492.943953,428007.22163518186
491.488699,399215.926884507
490.04588839999997,368475.79861354094
488.6153648,337241.31177726464
487.19697429999997,306483.7362730445
485.7905654,277071.714476636
484.39598889999996,249542.73674295624
483.01309800000007,224181.74363924304
481.64174840000004,201153.73551431767
480.28179789999996,180593.8919311548
478.93310639999993,162408.18478232162
477.59553619999997,146524.6628641045
476.2689517,132826.63003468205
474.9532192,121187.3295402942
473.6482074,111463.41802492664
472.35378679999997,103382.62046891723
471.06982989999995,96747.8136217008
469.79621110000005,91276.24907500221
468.53280700000005,86787.96257003139
467.2794956999999,83021.32790502776
466.0361575,79733.40042477497
464.80267410000005,76865.46784912924
463.5789295,74292.5530485184
462.364809,71917.53115920573
461.1601998,69798.98585017638
459.9649909,67878.17107425362
458.7790727,66178.41376239044
457.6023374,64703.441052416856
456.4346788,63426.74487535053
455.2759921,62327.2726185967
454.12617439999997,61408.12662886224
452.9851239,60619.16953472704
451.85274060000006,59904.46486867066
450.7289258,59276.608474421446
449.6135822,58718.985346551955
448.5066141,58256.07660081824
447.407927,57895.85145230336
446.317428,57683.728712600234
445.23502520000005,57704.593818076726
444.1606283,57948.64986067156
443.0941482,58462.00310641064
442.03549699999996,59205.88901689772
440.9845882,60185.76418508137
439.9413364,61293.20206814336
438.9056575,62393.26177677707
437.87746860000004,63372.75714455465
436.85668780000003,64051.92901359232
435.8432345,64293.16893732367
434.83702930000004,63992.3448724513
433.83799369999997,63075.22809808941
432.84605039999997,61529.3497775466
431.8611232,59399.75084622276
430.8831369,56796.445838284686
429.9120175,53833.800631885846
428.94769169999995,50658.9371787096
427.9900874,47413.751270447676
427.03913370000004,44256.299765132666
426.0947602,41270.85646967325
425.1568978,38552.24643260936
424.22547829999996,36156.7493126648
423.3004343,34091.693478771485
422.3816994,32346.65234283041
421.4692081,30905.10841666271
420.56289569999996,29734.191460403086
419.66269850000003,28847.455583835952
418.7685535,28128.3280555725
417.8803987,27594.18389586101
416.9981727,27191.396842343398
416.12181519999996,26898.36040298046
415.25126639999996,26659.6848202752
414.38646760000006,26460.358117033775
413.5273605,26256.29446793978
412.673888,26031.03337665278
411.8259934,25741.186021477344
410.9836208,25368.475527615577
410.14671519999996,24900.519898097857
409.3152221,24346.77552522246
408.48908789999996,23695.388935738818
407.66825960000006,22963.93959884832
406.8526847,22203.225004167798
406.0423117,21400.709945358245
405.2370896,20613.512984537843
404.43696800000004,19856.63558979561
403.64189730000004,19156.072129856217
402.8518283,18542.016682265617
402.0667126,18001.186385446155
401.28650239999996,17531.527218668332
400.5111505,17138.976618795492
399.7406101,16768.428593072378
398.9748353,16429.5065101459
398.2137806,16081.907690621385
397.457401,15711.632799215833
396.7056521,15324.35952562833
395.9584903,14889.791174722739
395.2158722,14428.812859425769
394.4777551,13953.567378594347
393.7440968,13490.83719936231
393.0148555,13031.213388951308
392.2899901,12612.822008648134
391.56946,12212.939835002117
390.853225,11838.295136552924
390.1412452,11512.651783694062
389.43348169999996,11201.472108640111
388.7298955,10889.5395783778
388.03044839999995,10599.113118801595
387.3351027,10318.31011240022
386.6438209,10051.31682218596
385.95656610000003,9794.387806240122
385.2733019,9540.970084883023
384.5939922,9330.376580663216
383.9186014,9153.760973742399
383.2470943,9026.52615284006
382.5794362,8947.472667650558
381.9155926,8949.121666664623
381.2555296,9025.638814932976
380.59921360000004,9210.140684878892
379.9466115,9505.245823079284
379.29769039999996,9917.306222814655
378.652418,10468.766555301116
378.0107622,11140.42342093714
377.37269130000004,11914.321506830971
376.73817410000004,12764.319425269561
376.1071796,13653.426265734148
375.47967719999997,14535.536458003357
374.8556368,15346.286838838809
374.2350283,16016.009017520175
373.6178223,16504.01272047191
373.0039896,16769.475629082546
372.3935012,16764.160588555143
371.78632860000005,16494.178326200414
371.1824436,15954.793463497444
370.5818182,15189.478854702522
369.98442489999996,14239.710672450803
369.39023629999997,13147.458721941804
368.7992255,11987.339063553774
368.2113658,10800.747702549359
367.6266307,9647.780415699692
367.0449943,8580.457538233151
366.4664305,7603.799847684154
365.89091410000003,6738.274313643199
365.3184196,5985.083874523545
364.7489221,5344.762532015029
364.18239689999996,4794.142260369233
363.61881960000005,4325.826095661701
363.058166,3919.1421581040554
362.50041219999997,3554.360019241387
361.94553460000003,3228.9468971925444
361.3935098,2920.1587966256543
360.8443147,2633.5271469826225
360.29792630000003,2366.510294608097
359.754322,2115.134040484115
359.2134795,1877.8640217430475
358.6753765,1667.8027984945866
358.1399912,1475.5958360477198
357.6073018,1306.264639144632
357.077287,1160.0593581856574
356.5499253,1034.0945065676958
356.025196,931.888028267294
355.50307799999996,840.9585757883441
354.983551,770.56937157164
354.4665945,714.3483123660626
353.95218839999995,669.7990643348428
353.4403127,638.4018625591302
352.9309478,599.795369886104
352.42407410000004,580.5708169659681
351.9196722,556.7128534415036
351.4177232,541.5974520658708
350.91820789999997,522.3999680420617
350.4211078,508.720259576222
349.9264043,490.2299267734237
349.434079,474.4627246926643
348.9441137,455.8086461412988
348.45649060000005,441.7812718952037
347.97119169999996,426.5196420538083
347.48819960000003,413.64049790832064
347.0074967,393.21095037348135
346.5290657,380.1211318976358
346.0528897,366.00480132347803
345.5789517,354.46885894647346
345.1072349,334.05321936356154
344.6377228,318.10199024122466
344.17039889999995,305.17153077082344
343.70524710000007,292.43266984431517
343.24225110000003,274.38271079279684
342.7813952,266.0431104480965
342.32266339999995,257.18477393519487
341.8660403,239.9078097109013
341.4115102,228.29074639539255
340.959058,215.38424788684588
340.5086685,206.3576827464707
340.06032660000005,201.13146786455584
339.6140175,192.51629913879418
339.1697264,179.8524692312028
338.7274388,178.2340458468566
338.28714019999995,177.36996380685744
337.8488164,162.0127450669917
337.41245310000005,161.91242190879387
336.9780363,149.87740013712084
336.5455522,142.47522266752046
336.114987,138.21904861890306
335.686327,135.49571562437077
335.2595588,128.49763156453923
334.834669,121.64674979536636
334.4116443,117.00805278914466
333.9904716,112.39263096353856
333.57113799999996,105.19872835943072
333.1536305,99.04897986496685
332.73793639999997,102.90696238176184
332.32404310000004,98.65204315673073
331.91193799999996,92.92682585021576
331.5016088,91.25494575449751
331.0930432,87.17910334542319
330.6862289,85.8904055058522
330.281154,80.06291505110228
329.8778065,78.84893474831978
329.47617460000004,81.9535962885223
329.07624649999997,73.54214598639481
328.6780106,76.39093849850047
328.2814555,73.24464145088818
327.88656960000003,66.26588959656489
327.4933418,70.5678073952741
327.1017607,59.941243711854035
326.7118154,57.96662036802447
326.32349480000005,54.891711227229756
325.93678789999996,45.03429360922346
325.5516841,44.219856409595785
325.16817260000005,39.042224434489476
324.7862428,33.94372095167154
324.40588419999995,24.253794704138876
324.0270864,19.956295506145985
323.649839,18.77474838771423
323.2741319,13.143414693233474
322.8999548,12.724976915523191
322.5272977,12.495335164944954
322.1561508,12.50969778108075
321.786504,5.9683009820631705
321.4183476,5.444470832182641
321.0516719,11.48550671550404
320.6864673,1.0041589140335487
320.3227243,6.290585330630374
319.96043330000003,3.238130353458064
319.5995851,2.365804247736224
319.2401704,-1.1395317777360456
318.8821799,2.7536552173228723
318.5256045,-1.0188546556345508
318.1704352,-0.9072539686641214
317.8166631,1.020805145056741
317.4642791,3.1706027105071466
317.1132746,0.8055767648804071
316.76364069999994,-0.1928035889123363
316.4153688,2.772719375449254
316.06845039999996,2.484294876665156
315.72287689999996,-2.5277927241739198
315.37863980000003,2.3477457489854716
315.0357308,-1.9634510656869968
314.6941415,-3.72074132799677
314.3538639,-0.5285084174371322
314.0148896,-0.9263802953497904
313.6772106,-2.650454513795464
313.3408189,-1.2149742776841022
313.00570639999995,2.0935479251203595
312.67186549999997,0.08345314220594474
312.33928810000003,-1.5494880169714491
312.0079665,-2.873428787334047
311.6778931,2.0321858828579544
311.34906010000003,0.03118232330142815
311.0214601,0.22189825645704656
310.6950856,2.3318846715274923
310.369929,-1.3900563336442553
310.04598300000004,-4.129704431092273
309.7232403,-4.210787712397364
309.4016935,1.9917993769190985
309.0813356,-0.98512791006583
308.7621594,3.3626905514886087
308.4441577,-0.2173632870186803
308.1273236,-2.416085817680345
307.8116501,-4.088325991094886
307.49713019999996,-1.3491072719624309
307.18375710000004,-2.2006804718684414
306.871524,-0.5319470708092997
306.5604242,1.888680033298088
306.2504509,-1.7728228373537167
