wave,flux
1817.164934,0.6823237056661329
1790.1022050000001,3.4927274576339387
1763.812741,7.599002903586188
1738.2646949999998,15.275061217644
1713.427949,29.79869674609414
1689.273995,77.65817658683024
1665.7758310000002,160.6474143490878
1642.907862,281.13376390430267
1620.64581,438.49109808583984
1598.9666300000001,614.70306188486
1577.8484310000001,831.5189603819348
1557.270407,1073.4350285768087
1537.212767,1342.387614522648
1517.65668,1578.1192555226314
1498.5842089999999,1788.8977175973794
1479.978265,1954.8110259144087
1461.822555,2095.811231544052
1444.101535,2210.494524043721
1426.800368,2294.946216515915
1409.904887,2348.354913962962
1393.401553,2384.054417420317
1377.2774220000001,2410.769772361029
1361.520115,2444.597510155673
1346.117782,2473.4981696159603
1331.059081,2527.9462429981104
1316.3331449999998,2593.7647906426005
1301.92956,2677.385202699646
1287.838342,2776.717230591462
1274.049912,2898.3303181455767
1260.5550779999999,3032.5989798223627
1247.345017,3180.213076856844
1234.4112519999999,3348.5090180158195
1221.74564,3507.4650064748853
1209.340352,3637.698231265727
1197.187859,3772.0295695113286
1185.28092,3905.1651667847655
1173.612564,4218.197902628518
1162.1760800000002,4696.146775446399
1150.9650060000001,5350.457395882264
1139.973115,6146.2840181395095
1129.194406,7147.359100367654
1118.623093,8324.667350131855
1108.253594,9683.928684081175
1098.0805269999998,11171.240577682662
1088.098695,12602.475818308669
1078.303081,14032.723834009064
1068.688841,15433.522224613474
1059.251295,16928.833069394776
1049.9859199999999,18445.820158884035
1040.8883449999998,20116.546122401618
1031.9543429999999,22014.11891192014
1023.1798259999999,24156.92380203315
1014.5608390000001,26519.93106957538
1006.0935529999999,29177.841778557704
997.774265,32086.469903517424
989.5993858999999,35250.341962703285
981.5654412999999,38584.74519008051
973.6690651,42106.79603369648
965.9069952,45704.10536741401
958.2760697000001,49393.9203999375
950.7732231000001,53227.16116379709
943.3954827,57089.18927044494
936.1399648,61095.01394299416
929.0038716,65182.65608584147
921.9844879000001,69471.17875142577
915.0791782,73768.39809290119
908.2853836000002,78190.03995120579
901.6006193,82812.38489749173
895.0224714,87488.91323203154
888.548595,92225.4551511394
882.1767113,97002.59141445092
875.9046055,101791.97235331069
869.7301242999998,106675.94732258194
863.6511742999999,111555.83568625538
857.6657193,116567.53511516922
851.7717787,121550.5762850217
845.9674256000001,126564.19336644535
840.2507849,131597.2791894078
834.6200316000001,136782.1883059133
829.0733892000001,141909.89588459948
823.6091279,147003.70309984864
818.2255633999999,152027.48955537027
812.9210552000001,157150.0129773675
807.694005,162710.44095112788
802.5428559,168397.70737587768
797.4660904,174108.6136798106
792.4622299,180313.39967874077
787.5298327,187438.68048073648
782.6674933999999,195672.50877645766
777.8738417999999,205408.44465896013
773.1475413,216537.85216581845
768.4872882999999,229714.715234502
763.8918112000001,245091.43758976157
759.3598692,262942.9223005973
754.8902515999999,282873.89695524826
750.4817767999999,305033.5306964501
746.1332914,328658.60978194344
741.8436694000001,352800.88393631554
737.6118116,376716.5816226629
733.4366444,399325.20175460994
729.3171195,421008.6124858732
725.2522127999999,440641.8920032094
721.2409241,460436.0720638197
717.282276,480664.94340264646
713.3753136,503600.02170448896
709.5191037000001,533333.961403399
705.7127343,572074.9771793941
701.9553139,625357.4609702191
698.2459709,696439.582307104
694.5838534,788855.6902780216
690.9681281000001,903153.3826275605
687.3979803,1040878.6787812408
683.8726131,1198583.310982501
680.3912472999999,1373269.07214518
676.9531202000001,1558476.0387679718
673.557486,1746261.4170001843
670.2036149,1927676.1924357947
666.8907926,2094242.884286051
663.6183202999999,2235840.5242733504
660.3855139,2348064.306685891
657.1917038,2424240.190750831
654.0362346,2466768.469087738
650.9184646000001,2475416.88704727
647.8377654,2457905.695431455
644.7935217999999,2422762.615257613
641.7851312999999,2379617.701287169
638.8120038,2340260.863697379
635.8735614,2313803.123903829
632.9692378999999,2309548.153203823
630.0984786,2332434.0291028214
627.2607402000001,2384944.8485729666
624.4554901,2466791.648823509
621.6822068,2577738.62340264
618.940379,2714213.966672751
616.2295054,2877795.0734215365
613.549095,3069913.346992948
610.8986664,3295695.6210824177
608.2777476,3548947.0484818243
605.6858758999999,3824834.951451412
603.1225977000001,4118265.2293543937
600.5874682,4423031.5375523735
598.0800512,4730615.4283877015
595.5999188999999,5028329.125867143
593.1466518,5300214.790351266
590.7198384999999,5522827.972258394
588.3190752,5700781.696272632
585.943966,5837084.8724567685
583.5941226,5933943.98870045
581.2691637,5996861.480770576
578.9687155,6029967.7078271685
576.692411,6041066.330554172
574.4398902,6041564.518715967
572.2107997,6041197.512718664
570.0047927,6041479.930939998
567.8215287,6041145.95660499
565.6606737000001,6041206.84977694
563.5218996,6041213.463580064
561.4048845,6041536.693732841
559.3093121,6041616.647745187
557.2348721,6041575.738659822
555.1812597,6040864.782853196
553.1481756000001,6041555.451285715
551.1353259,6041127.924703394
549.1424218999999,6041431.097854191
547.1691801,6041565.9706690535
545.2153222000001,6041335.814657054
543.2805745000001,6041083.879411373
541.3646685,6041393.925425977
539.46734,6041375.898242363
537.5883299,6041587.206583902
535.7273833,6041715.995255258
533.8842498,6041510.894030761
532.0586836,6041480.550930444
530.2504428000001,6041388.311431438
528.45929,6041722.546216457
526.6849915,6041829.914340663
524.927318,6041264.189832825
523.186044,6041800.915666613
521.4609475999999,6041592.517624336
519.7518110000001,6041651.451382288
518.0584200000001,6041376.828705974
516.3805639,6041618.044528509
514.7180356,6041752.999059365
513.0706316000001,6041611.674202452
511.43815149999995,6041139.339705631
509.82039860000003,6041541.9426782075
508.2171791999999,6041357.004883967
506.628303,6041776.085301212
505.05358269999994,6041732.3020776175
503.4928341,6040861.264269128
501.9458762,6041130.7221857365
500.41253059999997,6041623.585498565
498.8926222,6041364.887242119
497.3859785,6041655.8866039
495.89242989999997,6041331.613280995
494.4118094,6041622.57542138
492.943953,6041227.351181392
491.488699,6041881.714050722
490.04588839999997,6041495.32876516
488.6153648,6041423.597919224
487.19697429999997,6041215.315447475
485.7905654,6041693.248986513
484.39598889999996,6041285.1276184
483.01309800000007,6040827.938670172
481.64174840000004,6041751.951667034
480.28179789999996,6041280.055284174
478.93310639999993,6041539.884019798
477.59553619999997,6041528.888798608
476.2689517,6041282.861989196
474.9532192,6041227.5186562985
473.6482074,6040996.816459344
472.35378679999997,6041246.741680102
471.06982989999995,6041636.312182742
469.79621110000005,6041428.784713299
468.53280700000005,6041483.656329342
467.2794956999999,6041452.388555233
466.0361575,6041259.468396568
464.80267410000005,6041416.769083946
463.5789295,6041539.34450538
462.364809,6041240.980752791
461.1601998,6041530.096572909
459.9649909,6041503.146364275
458.7790727,6041656.798637693
457.6023374,6041219.235328242
456.4346788,6041559.356190955
455.2759921,6041445.871430224
454.12617439999997,6040973.295500073
452.9851239,6041603.895263737
451.85274060000006,6041442.937926742
450.7289258,6041128.209634863
449.6135822,6041514.961445019
448.5066141,6041549.257064602
447.407927,6041317.249010849
446.317428,6041469.229756962
445.23502520000005,6041416.893404966
444.1606283,6041351.169315103
443.0941482,6041196.634183086
442.03549699999996,6041284.303582934
440.9845882,6041367.375781053
439.9413364,6041568.510873504
438.9056575,6041729.111030286
437.87746860000004,6041369.127479828
436.85668780000003,6041142.191726684
435.8432345,6041473.506954207
434.83702930000004,6041242.376660325
433.83799369999997,6041363.055868132
432.84605039999997,6041196.9260700885
431.8611232,6041518.7106435625
430.8831369,6041204.252686325
429.9120175,6041518.020730377
428.94769169999995,6041482.619699644
427.9900874,6040830.023335845
427.03913370000004,6041322.656378858
426.0947602,6041285.16283407
425.1568978,6041265.557968048
424.22547829999996,6041478.537790492
423.3004343,6041394.245973351
422.3816994,6041239.9592356365
421.4692081,6041056.849478558
420.56289569999996,6040908.535866489
419.66269850000003,6041744.0622503515
418.7685535,6041186.195055656
417.8803987,6041327.898005937
416.9981727,6041870.722483971
416.12181519999996,6041708.313717275
415.25126639999996,6041318.858211622
414.38646760000006,6041423.963876513
413.5273605,6041440.75722473
412.673888,6041283.056224739
411.8259934,6041513.331411356
410.9836208,6041541.366782049
410.14671519999996,6041672.920556955
409.3152221,6041203.649053197
408.48908789999996,6041493.184664361
407.66825960000006,6041586.677754712
406.8526847,6041372.370841113
406.0423117,6041385.188505682
405.2370896,6041806.826584755
404.43696800000004,6041674.341548568
403.64189730000004,6041699.571343716
402.8518283,6041752.373961036
402.0667126,6041587.719878014
401.28650239999996,6041194.214786262
400.5111505,6041198.39668801
399.7406101,6041700.486677065
398.9748353,6041357.052665682
398.2137806,6041224.2774575725
397.457401,6041600.880240853
396.7056521,6041574.551362461
395.9584903,6041273.762819496
395.2158722,6040968.231399102
394.4777551,6041485.585450812
393.7440968,6041035.091206798
393.0148555,6039239.907460038
392.2899901,6032302.760934427
391.56946,6015248.446725175
390.853225,5985839.231232547
390.1412452,5941591.231928696
389.43348169999996,5881760.235420167
388.7298955,5804646.5529227415
388.03044839999995,5708450.273758079
387.3351027,5594029.748680737
386.6438209,5470809.122180255
385.95656610000003,5342078.473222357
385.2733019,5212172.615214156
384.5939922,5084265.363079502
383.9186014,4960380.231589852
383.2470943,4842584.39871968
382.5794362,4732471.98670807
381.9155926,4631448.827881623
381.2555296,4539641.320187466
380.59921360000004,4456205.229404628
379.9466115,4383239.802949789
379.29769039999996,4320779.688318598
378.652418,4270978.377779183
378.0107622,4234445.798699161
377.37269130000004,4211031.544394329
376.73817410000004,4199809.821831472
376.1071796,4197689.064097367
375.47967719999997,4201278.968623675
374.8556368,4208636.665815547
374.2350283,4215604.494589395
373.6178223,4218277.194493325
373.0039896,4215208.281759274
372.3935012,4203607.259506104
371.78632860000005,4182708.7889297423
371.1824436,4151021.475918991
370.5818182,4108255.7789457617
369.98442489999996,4052602.9426061236
369.39023629999997,3984725.11083654
368.7992255,3901382.039672266
368.2113658,3800942.710114628
367.6266307,3682570.665364968
367.0449943,3543056.1187947267
366.4664305,3381598.956970832
365.89091410000003,3199753.783100884
365.3184196,2998170.5831643087
364.7489221,2779221.614309929
364.18239689999996,2548135.9756348697
363.61881960000005,2310669.1385969017
363.058166,2072040.391075071
362.50041219999997,1838772.6006675381
361.94553460000003,1617099.064346374
361.3935098,1410075.7152118357
360.8443147,1223339.3108002036
360.29792630000003,1057462.5802256723
359.754322,914252.498143472
359.2134795,792413.3339750548
358.6753765,690613.4557187741
358.1399912,606725.1434475463
357.6073018,538725.0970330228
357.077287,483496.1337844359
356.5499253,438809.1111772699
356.025196,402008.95426009706
355.50307799999996,371778.13222754776
354.983551,346142.61519299145
354.4665945,324037.458977918
353.95218839999995,304659.7514488289
353.4403127,287353.718315914
352.9309478,271674.77150960924
352.42407410000004,257351.8595321085
351.9196722,244265.29079219146
351.4177232,232294.75403680746
350.91820789999997,221615.6575051684
350.4211078,211932.3094725443
349.9264043,203087.41739275094
349.434079,195112.65640427926
348.9441137,187819.1734795678
348.45649060000005,181069.4887253436
347.97119169999996,174783.8224943423
347.48819960000003,168771.28458778802
347.0074967,162872.44039385114
346.5290657,156911.8114769936
346.0528897,150928.46346963214
345.5789517,144826.01852064245
345.1072349,138778.80733729788
344.6377228,132734.97875132028
344.17039889999995,126579.52958324856
343.70524710000007,120493.99360042224
343.24225110000003,114524.3455100895
342.7813952,108795.23753703812
342.32266339999995,103322.86126653675
341.8660403,98063.31874785283
341.4115102,92979.64761256767
340.959058,88027.71559895235
340.5086685,83310.49877215926
340.06032660000005,78864.04975031673
339.6140175,74579.00807381741
339.1697264,70405.60590306176
338.7274388,66356.90688281287
338.28714019999995,62543.22147527509
337.8488164,58921.173837259186
337.41245310000005,55619.665871876394
336.9780363,52621.473011933624
336.5455522,49832.44924377373
336.114987,47328.48224460957
335.686327,45105.4021282029
335.2595588,43153.258864867945
334.834669,41381.85074495507
334.4116443,39770.92759413148
333.9904716,38226.35881333159
333.57113799999996,36731.21429472905
333.1536305,35272.12992230189
332.73793639999997,33785.19453689678
332.32404310000004,32312.8439719168
331.91193799999996,30877.138524999747
331.5016088,29464.29501150435
331.0930432,28129.47179913556
330.6862289,26821.0254774191
330.281154,25587.68431110334
329.8778065,24437.943336580698
329.47617460000004,23358.926099066866
329.07624649999997,22363.627016909722
328.6780106,21398.21157314533
328.2814555,20432.071153582252
327.88656960000003,19513.073686671014
327.4933418,18594.41572163756
327.1017607,17656.709487414337
326.7118154,16704.714307497863
326.32349480000005,15739.871541715678
325.93678789999996,14769.173892061743
325.5516841,13784.043208852718
325.16817260000005,12801.730798870552
324.7862428,11846.623204389422
324.40588419999995,10929.529232140769
324.0270864,10056.416332630635
323.649839,9211.797470395739
323.2741319,8396.887007670528
322.8999548,7580.557282150149
322.5272977,6757.354082545324
322.1561508,5948.486227969005
321.786504,5134.770823164127
321.4183476,4301.762345441321
321.0516719,3516.192353563424
320.6864673,2741.918706638545
320.3227243,2064.1492517556007
319.96043330000003,1469.1578934686574
319.5995851,993.830724177455
319.2401704,622.370132634141
318.8821799,364.7126690471992
318.5256045,182.9904998738492
318.1704352,71.34419111234456
317.8166631,19.870220036959093
317.4642791,0.16117402232262432
317.1132746,2.4522829683297283
316.76364069999994,0.1860824622229472
316.4153688,2.181339889873558
316.06845039999996,1.180686414043742
315.72287689999996,1.8585602239484298
315.37863980000003,0.7537486745699938
315.0357308,-1.8155206082297464
314.6941415,3.9018037728628285
314.3538639,-5.365776453302435
314.0148896,1.2802762110095156
313.6772106,1.0306256339192097
313.3408189,2.718851787703675
313.00570639999995,-2.604557499555744
312.67186549999997,-1.7692495399860018
312.33928810000003,0.3639936274891133
312.0079665,-0.44164978084216616
311.6778931,-0.5290790559443908
311.34906010000003,-1.0525991229087124
311.0214601,2.189591227458309
310.6950856,-0.812320270151433
310.369929,-3.620763993468032
310.04598300000004,0.2891553980353481
309.7232403,3.240251946377362
309.4016935,-0.3288883912708369
309.0813356,-0.2183154611115039
308.7621594,-0.4907834669372569
308.4441577,-1.7248150466055616
308.1273236,-2.7816144165444445
307.8116501,-3.2144245905260824
307.49713019999996,4.367112802300895
307.18375710000004,0.5494277844463804
306.871524,-0.8127067856701421
306.5604242,2.456449144170907
306.2504509,-4.434614551002644
