wave,flux
1817.164934,-4.080422257142697
1790.1022050000001,-3.7791475092019455
1763.812741,-3.3006664273049022
1738.2646949999998,-0.7819891572380236
1713.427949,-1.9106813111534888
1689.273995,7.518337391809018
1665.7758310000002,4.927221495018799
1642.907862,14.82327449574642
1620.64581,22.227289853252717
1598.9666300000001,35.2922323855465
1577.8484310000001,43.02841460657599
1557.270407,54.08946757321121
1537.212767,72.9482000633524
1517.65668,92.22142634273891
1498.5842089999999,95.47798608186348
1479.978265,110.65295595203516
1461.822555,117.75121873619663
1444.101535,124.86035355967688
1426.800368,60.50609181028563
1409.904887,124.00147818060265
1393.401553,116.9244514602598
1377.2774220000001,143.4315698834575
1361.520115,166.72147135526706
1346.117782,173.02539831833985
1331.059081,82.6437301983876
1316.3331449999998,165.17858432209394
1301.92956,4314.288540876415
1287.838342,12647.24959689564
1274.049912,25060.901223587774
1260.5550779999999,41640.9056698067
1247.345017,62133.98435969507
1234.4112519999999,86695.87467233428
1221.74564,115217.58580799395
1209.340352,147708.46736446698
1197.187859,176464.77588503805
1185.28092,201547.66113499
1173.612564,223087.09603833425
1162.1760800000002,240915.86586537608
1150.9650060000001,255006.5355397076
1139.973115,265838.5741947237
1129.194406,272983.36906713544
1118.623093,276386.1769216405
1108.253594,280314.8347240296
1098.0805269999998,284099.4126873696
1088.098695,287831.90784574486
1078.303081,291574.77779968845
1068.688841,295583.34997077694
1059.251295,299442.37554278784
1049.9859199999999,303358.82416272763
1040.8883449999998,307582.2326491002
1031.9543429999999,311717.89959951205
1023.1798259999999,315861.1698882497
1014.5608390000001,319723.4814720496
1006.0935529999999,324250.15905239066
997.774265,328560.36366108817
989.5993858999999,332761.28614882624
981.5654412999999,336948.0035646825
973.6690651,341648.52490023663
965.9069952,346286.2608914181
958.2760697000001,350603.70497853763
950.7732231000001,355223.9975012922
943.3954827,359887.4166335286
936.1399648,364383.3303178849
929.0038716,368873.1700851324
921.9844879000001,373032.69751578383
915.0791782,377526.8938706722
908.2853836000002,382411.64578743227
901.6006193,387481.21443489415
895.0224714,392595.4118618227
888.548595,398371.5367315724
882.1767113,405324.56185720494
875.9046055,413444.3508851635
869.7301242999998,425123.93599676096
863.6511742999999,438999.1490479162
857.6657193,457762.8893599935
851.7717787,480236.23457764526
845.9674256000001,508772.092882098
840.2507849,541945.722299131
834.6200316000001,580413.7761850228
829.0733892000001,623206.5219482315
823.6091279,668750.857518915
818.2255633999999,715905.4647314312
812.9210552000001,762081.4336583071
807.694005,806592.3090854611
802.5428559,846579.3938441677
797.4660904,880275.0199489377
792.4622299,908074.436125573
787.5298327,930197.4190052492
782.6674933999999,943818.1422550766
777.8738417999999,953498.8333119487
773.1475413,957210.3041149131
768.4872882999999,960083.9670204407
763.8918112000001,963295.1685784679
759.3598692,969682.7104624785
754.8902515999999,985805.7548148149
750.4817767999999,1010677.3411359886
746.1332914,1050208.2989911851
741.8436694000001,1112893.9812570512
737.6118116,1197154.419993364
733.4366444,1312940.373521979
729.3171195,1462772.4923533737
725.2522127999999,1650455.6595706784
721.2409241,1874516.412943409
717.282276,2133020.597050466
713.3753136,2424631.322038767
709.5191037000001,2738265.5379902627
705.7127343,3066368.349716077
701.9553139,3406248.8664778755
698.2459709,3750749.223270442
694.5838534,4085815.321265953
690.9681281000001,4404660.06370775
687.3979803,4697045.129751014
683.8726131,4966205.4614498215
680.3912472999999,5208150.670178127
676.9531202000001,5426296.953436764
673.557486,5604443.699240856
670.2036149,5742694.197857571
666.8907926,5849397.5281390175
663.6183202999999,5926890.897621253
660.3855139,5983421.4363957625
657.1917038,6018186.734070633
654.0362346,6037023.930251439
650.9184646000001,6041018.8906852165
647.8377654,6040886.435047555
644.7935217999999,6042114.14145036
641.7851312999999,6042804.846066117
638.8120038,6042051.512555419
635.8735614,6042157.1197393285
632.9692378999999,6041259.671917858
630.0984786,6042233.177833411
627.2607402000001,6042372.6727854
624.4554901,6043033.526013209
621.6822068,6041461.174663467
618.940379,6041161.689460567
616.2295054,6041495.230237414
613.549095,6041425.352719522
610.8986664,6041333.360687781
608.2777476,6041296.978813128
605.6858758999999,6041148.75815325
603.1225977000001,6041266.840420154
600.5874682,6041080.580375847
598.0800512,6040741.733013508
595.5999188999999,6041580.161637086
593.1466518,6041660.950194601
590.7198384999999,6041428.056474632
588.3190752,6041547.306398872
585.943966,6041345.146818402
583.5941226,6041586.20256966
581.2691637,6041583.185366055
578.9687155,6041265.472056982
576.692411,6041185.386240839
574.4398902,6041296.8567091115
572.2107997,6041019.465207959
570.0047927,6040935.664193488
567.8215287,6041574.834740047
565.6606737000001,6041155.815797002
563.5218996,6032027.5989235835
561.4048845,6005833.900506907
559.3093121,5960410.91881531
557.2348721,5900858.27279128
555.1812597,5832670.244216672
553.1481756000001,5765525.2005687235
551.1353259,5699000.12391363
549.1424218999999,5632998.752129068
547.1691801,5585531.665331015
545.2153222000001,5569840.914099134
543.2805745000001,5578661.996715385
541.3646685,5592462.503536345
539.46734,5586019.053569283
537.5883299,5535129.182744845
535.7273833,5433458.641287167
533.8842498,5279516.426009813
532.0586836,5065260.100425807
530.2504428000001,4789598.136267582
528.45929,4477184.468808267
526.6849915,4155935.3294157777
524.927318,3856023.325682162
523.186044,3602219.504604713
521.4609475999999,3403234.5322282314
519.7518110000001,3262230.103297493
518.0584200000001,3176169.0258313706
516.3805639,3137452.329281028
514.7180356,3131789.3490829323
513.0706316000001,3145341.478699595
511.43815149999995,3172827.2014165614
509.82039860000003,3214686.4413864287
508.2171791999999,3278176.7330505
506.628303,3372069.7640863564
505.05358269999994,3507345.7545205182
503.4928341,3688180.0920384508
501.9458762,3914072.0171611006
500.41253059999997,4178616.263217115
498.8926222,4470482.652609942
497.3859785,4772278.111299251
495.89242989999997,5065056.360862883
494.4118094,5330002.379154056
492.943953,5551388.5682773525
491.488699,5725859.247950275
490.04588839999997,5855714.573848508
488.6153648,5944881.448020639
487.19697429999997,5999729.043662027
485.7905654,6028418.7154617775
484.39598889999996,6039878.362444787
483.01309800000007,6041499.036526891
481.64174840000004,6041555.90497103
480.28179789999996,6041293.26111888
478.93310639999993,6041580.510335111
477.59553619999997,6041577.768990062
476.2689517,6041503.74065356
474.9532192,6041461.665957672
473.6482074,6041466.6483927835
472.35378679999997,6041454.132240622
471.06982989999995,6041319.147640533
469.79621110000005,6041370.064787992
468.53280700000005,6041245.479619977
467.2794956999999,6041505.175503412
466.0361575,6041866.972003229
464.80267410000005,6041307.2192951925
463.5789295,6042277.890377253
462.364809,6041236.663622428
461.1601998,6041274.039951535
459.9649909,6041331.51174524
458.7790727,6041830.916359346
457.6023374,6041419.807906589
456.4346788,6041734.986833411
455.2759921,6041737.641140585
454.12617439999997,6041606.22537731
452.9851239,6041791.042186498
451.85274060000006,6041388.527308464
450.7289258,6041418.907904311
449.6135822,6041245.874015791
448.5066141,6041234.2342759725
447.407927,6041377.709762589
446.317428,6041610.4813125925
445.23502520000005,6041141.962942751
444.1606283,6041586.092317241
443.0941482,6041393.677499202
442.03549699999996,6038665.764549889
440.9845882,6025784.935467403
439.9413364,5997385.067660429
438.9056575,5944533.37839308
437.87746860000004,5859214.602719013
436.85668780000003,5733267.627379323
435.8432345,5558896.816774645
434.83702930000004,5331142.593353879
433.83799369999997,5051933.881986968
432.84605039999997,4731643.412801473
431.8611232,4383245.864555702
430.8831369,4021756.1422898
429.9120175,3663268.9868619964
428.94769169999995,3322808.04801009
427.9900874,3014342.4525300367
427.03913370000004,2747373.086374267
426.0947602,2526367.05023705
425.1568978,2348486.335529289
424.22547829999996,2208948.0779055604
423.3004343,2101686.383075679
422.3816994,2020347.5067669638
421.4692081,1959064.5169993988
420.56289569999996,1914520.9718904826
419.66269850000003,1883949.6373293183
418.7685535,1866499.7631546492
417.8803987,1861439.4136504089
416.9981727,1869058.4590122355
416.12181519999996,1887167.2233824376
415.25126639999996,1913450.9621050584
414.38646760000006,1943353.7019459843
413.5273605,1972212.1464710988
412.673888,1994829.8999911582
411.8259934,2007386.4048583747
410.9836208,2006823.9954287775
410.14671519999996,1992190.0072767856
409.3152221,1964967.0352583644
408.48908789999996,1927736.520555233
407.66825960000006,1884886.347376153
406.8526847,1840892.487730768
406.0423117,1799154.9643452796
405.2370896,1761086.7318811952
404.43696800000004,1726449.860538159
403.64189730000004,1693936.013103855
402.8518283,1660343.9622021315
402.0667126,1622537.1684221053
401.28650239999996,1578105.1330161546
400.5111505,1525016.9851268744
399.7406101,1463343.4756785796
398.9748353,1394885.3574072162
398.2137806,1321892.2313143734
397.457401,1248663.279673624
396.7056521,1178152.2659569874
395.9584903,1112990.5320676654
395.2158722,1054844.7929384816
394.4777551,1004668.1974557473
393.7440968,961696.0717808078
393.0148555,925330.9921319048
392.2899901,894268.9306985389
391.56946,867173.4630467115
390.853225,842620.9085671048
390.1412452,819944.2120308584
389.43348169999996,798536.4873861183
388.7298955,778011.671742816
388.03044839999995,758203.4937610291
387.3351027,739020.0632942808
386.6438209,720674.6331454619
385.95656610000003,702832.1953739853
385.2733019,685718.2049225093
384.5939922,669057.5027952887
383.9186014,653099.217646318
383.2470943,637630.3389453085
382.5794362,622660.0024783235
381.9155926,608200.6444054915
381.2555296,594249.8691159892
380.59921360000004,580973.62508189
379.9466115,568019.7416952046
379.29769039999996,555544.8374212787
378.652418,543398.3467787998
378.0107622,525285.9745749142
377.37269130000004,500428.3542953753
376.73817410000004,469051.9962387282
376.1071796,431245.44879708224
375.47967719999997,387250.28668038314
374.8556368,337101.09954840626
374.2350283,281029.5351888132
373.6178223,219087.09661081785
373.0039896,164327.20920129213
372.3935012,117868.80334411685
371.78632860000005,79494.73030763782
371.1824436,48981.918389011385
370.5818182,26145.834101415705
369.98442489999996,10836.758489875036
369.39023629999997,2819.2526929976148
368.7992255,1947.6840700671905
368.2113658,1770.4848330279235
367.6266307,1617.7368088558892
367.0449943,1453.8734612454352
366.4664305,1340.4169058424275
365.89091410000003,1236.7944709318901
365.3184196,1147.0445746288472
364.7489221,1084.158569089695
364.18239689999996,1039.751926713436
363.61881960000005,993.2128828455752
363.058166,962.559612014658
362.50041219999997,942.4349183811796
361.94553460000003,928.7092707622148
361.3935098,914.4400253569996
360.8443147,900.3348923030185
360.29792630000003,890.9823212531035
359.754322,881.1571231104466
359.2134795,867.0953659503972
358.6753765,861.063104827866
358.1399912,855.5003214060374
357.6073018,842.3673807084941
357.077287,835.3451958041652
356.5499253,825.6997195745038
356.025196,814.7578122842352
355.50307799999996,795.6030890482637
354.983551,782.3213710926058
354.4665945,767.9738465360235
353.95218839999995,753.3803990980327
353.4403127,727.6982738083557
352.9309478,706.7827390106512
352.42407410000004,685.0853480366733
351.9196722,659.6310749465603
351.4177232,633.8348990912033
350.91820789999997,603.2473087650465
350.4211078,576.357273440353
349.9264043,554.3739666505381
349.434079,519.3500993606789
348.9441137,495.24884994180036
348.45649060000005,464.8294585674504
347.97119169999996,436.1334020272496
347.48819960000003,404.8407017648827
347.0074967,379.996216736733
346.5290657,354.4355498742914
346.0528897,325.99058705126043
345.5789517,304.01104254834524
345.1072349,282.75567203824244
344.6377228,247.68937794423329
344.17039889999995,231.84007552553444
343.70524710000007,211.09144492901785
343.24225110000003,194.44232359688272
342.7813952,180.91189594521003
342.32266339999995,164.13983811271288
341.8660403,153.62402674396176
341.4115102,138.42570557266612
340.959058,127.24948766293119
340.5086685,112.35182211913435
340.06032660000005,105.5658211224424
339.6140175,93.04838631713041
339.1697264,86.50072269122367
338.7274388,80.36227836222133
338.28714019999995,77.52142246937508
337.8488164,70.79212219725092
337.41245310000005,68.41024749725776
336.9780363,64.00518881994815
336.5455522,57.76350934171968
336.114987,54.89575108889603
335.686327,50.17457942427465
335.2595588,49.11845027672564
334.834669,47.542787270614035
334.4116443,44.462334165381
333.9904716,42.14372152746253
333.57113799999996,39.58798990312287
333.1536305,39.084725324344824
332.73793639999997,33.47081181342386
332.32404310000004,36.556675195782965
331.91193799999996,29.019708104828602
331.5016088,24.73139766539955
331.0930432,29.778984012719373
330.6862289,29.36653148908541
330.281154,28.360574515853262
329.8778065,26.141008533694176
329.47617460000004,24.58846319259543
329.07624649999997,24.494519767301146
328.6780106,26.43118315635445
328.2814555,24.227414100801624
327.88656960000003,22.857891341194648
327.4933418,22.803615126854886
327.1017607,18.640252383126512
326.7118154,19.148810297230227
326.32349480000005,18.605274218221673
325.93678789999996,17.270418831628614
325.5516841,15.126497321328554
325.16817260000005,13.414403712466324
324.7862428,11.706785354062855
324.40588419999995,11.199339131302457
324.0270864,9.063144520433607
323.649839,8.562967182815504
323.2741319,10.904915135883124
322.8999548,7.7829089735970545
322.5272977,7.984162630207987
322.1561508,8.713324820033503
321.786504,8.367008755691307
321.4183476,7.468654219053844
321.0516719,6.793154190132643
320.6864673,4.229302590421142
320.3227243,7.349057285045262
319.96043330000003,8.725127993507254
319.5995851,1.275136402603648
319.2401704,3.385918277603748
318.8821799,9.81335717833178
318.5256045,4.546848506478671
318.1704352,7.2165358425048565
317.8166631,5.498137607917256
317.4642791,5.767535910214404
317.1132746,7.927642572629802
316.76364069999994,6.208209253777461
316.4153688,-0.4123951441846421
316.06845039999996,4.299339434392959
315.72287689999996,-0.485914866827426
315.37863980000003,0.3333229256374497
315.0357308,3.0582515604439235
314.6941415,5.292174169653043
314.3538639,5.6448675130879105
314.0148896,1.5464414359432517
313.6772106,-2.766437019194833
313.3408189,4.169875703390606
313.00570639999995,0.12757031181180478
312.67186549999997,0.08907732969191495
312.33928810000003,1.760415204447444
312.0079665,-1.4058986844669623
311.6778931,-0.7547886374587858
311.34906010000003,0.9286352949208704
311.0214601,-0.03281405878336141
310.6950856,5.463370009485549
310.369929,-1.3631767895668654
310.04598300000004,-1.6695632033356085
309.7232403,2.21954279659006
309.4016935,-0.7431708057198411
309.0813356,1.5896155458443701
308.7621594,0.6421725694395309
308.4441577,5.281651636646084
308.1273236,-2.019414102746392
307.8116501,2.7697502645522643
307.49713019999996,-1.8085495792913795
307.18375710000004,1.2269006302502028
306.871524,2.3765039543348623
306.5604242,1.6939668412773117
306.2504509,2.329318863188124
