wave,flux
1817.164934,1.2083402233597762
1790.1022050000001,0.8087597200847729
1763.812741,-2.4498828438683233
1738.2646949999998,2.1245221517200603
1713.427949,398.81272475980967
1689.273995,1200.9025517289667
1665.7758310000002,2401.1176741626323
1642.907862,3976.70184055466
1620.64581,5954.380784992863
1598.9666300000001,8322.042057712091
1577.8484310000001,11076.625414364147
1557.270407,14211.028725611946
1537.212767,17039.007690106308
1517.65668,19524.706533614757
1498.5842089999999,21667.424170298083
1479.978265,23516.181266361535
1461.822555,25011.70455056972
1444.101535,26180.284189096674
1426.800368,27033.646496015426
1409.904887,27601.37728933905
1393.401553,28123.927085544103
1377.2774220000001,28690.480693314166
1361.520115,29218.691619685556
1346.117782,29815.13443394024
1331.059081,30367.433456845763
1316.3331449999998,30931.419907621337
1301.92956,31526.19525035605
1287.838342,32101.03064923583
1274.049912,32676.06671182074
1260.5550779999999,33308.83063167854
1247.345017,33927.87782329105
1234.4112519999999,34611.024451678844
1221.74564,35260.22553391703
1209.340352,36027.51098963955
1197.187859,36728.84350355175
1185.28092,37521.99783080754
1173.612564,38331.33644952049
1162.1760800000002,39081.51158498629
1150.9650060000001,39852.624371956816
1139.973115,40633.50017485365
1129.194406,41353.40066789833
1118.623093,42069.597201358825
1108.253594,42790.71875556418
1098.0805269999998,43529.46031737761
1088.098695,44283.12574705701
1078.303081,45171.52064079418
1068.688841,46139.0418493986
1059.251295,47505.15937403394
1049.9859199999999,49115.663741469514
1040.8883449999998,51162.0264879628
1031.9543429999999,53673.763361479294
1023.1798259999999,56646.76015592142
1014.5608390000001,60027.0372077361
1006.0935529999999,63856.23834434612
997.774265,67942.45748718298
989.5993858999999,72090.12305346517
981.5654412999999,76203.46163634339
973.6690651,80194.28426405496
965.9069952,83758.45901228812
958.2760697000001,86958.16646795782
950.7732231000001,89583.0556726897
943.3954827,91759.07546729867
936.1399648,93393.28624931801
929.0038716,94477.3747089573
921.9844879000001,95116.6722852347
915.0791782,95688.66330349364
908.2853836000002,96216.03830586543
901.6006193,97002.93157153716
895.0224714,98181.16681900238
888.548595,100111.46728033618
882.1767113,103080.04891342328
875.9046055,107148.13616704848
869.7301242999998,112478.87578608454
863.6511742999999,119747.86506081553
857.6657193,129668.552669966
851.7717787,144533.36046478405
845.9674256000001,164862.69394072384
840.2507849,190601.83094831015
834.6200316000001,222453.95644414503
829.0733892000001,261443.0707905319
823.6091279,305446.60733035393
818.2255633999999,356068.7416403661
812.9210552000001,408244.52437546453
807.694005,460500.7733796437
802.5428559,510127.70231356187
797.4660904,559377.5720536901
792.4622299,606442.611627319
787.5298327,654111.9669285322
782.6674933999999,705701.5521837891
777.8738417999999,767396.1108467331
773.1475413,841297.4669146386
768.4872882999999,935955.1165443441
763.8918112000001,1056087.695622721
759.3598692,1199512.157795466
754.8902515999999,1365872.993207522
750.4817767999999,1548408.3835870796
746.1332914,1742089.2696805778
741.8436694000001,1938566.724901156
737.6118116,2123805.2457165304
733.4366444,2295911.8685217267
729.3171195,2445705.8561282638
725.2522127999999,2581929.787809865
721.2409241,2714364.7897990067
717.282276,2865761.9995416086
713.3753136,3045627.0810601274
709.5191037000001,3261492.6820608387
705.7127343,3519557.0502524073
701.9553139,3817121.8687173305
698.2459709,4156425.277753738
694.5838534,4516959.001939726
690.9681281000001,4872948.728556045
687.3979803,5189525.294927781
683.8726131,5456527.258678776
680.3912472999999,5670458.682119372
676.9531202000001,5830236.317032321
673.557486,5942431.095591901
670.2036149,6007514.963476547
666.8907926,6036123.702592626
663.6183202999999,6042135.2919790475
660.3855139,6041160.825132772
657.1917038,6041018.786134985
654.0362346,6041584.971329519
650.9184646000001,6041450.642766533
647.8377654,6041458.852805897
644.7935217999999,6040799.197882143
641.7851312999999,6037066.135180745
638.8120038,6022613.329072886
635.8735614,5988924.734152116
632.9692378999999,5934067.794265161
630.0984786,5859564.857079645
627.2607402000001,5761985.3133315835
624.4554901,5644900.412721302
621.6822068,5505917.668858984
618.940379,5356398.139327521
616.2295054,5210287.018810323
613.549095,5081372.098580592
610.8986664,4973141.256650015
608.2777476,4889967.112029513
605.6858758999999,4832372.499694725
603.1225977000001,4799601.840981388
600.5874682,4790879.37121917
598.0800512,4801414.348825201
595.5999188999999,4821470.537738752
593.1466518,4841791.211824426
590.7198384999999,4855944.863578933
588.3190752,4860356.040358006
585.943966,4850656.273705379
583.5941226,4824226.832771025
581.2691637,4780622.848552858
578.9687155,4723196.010927909
576.692411,4656955.7365615815
574.4398902,4589355.313087655
572.2107997,4531922.172068425
570.0047927,4493873.6512663495
567.8215287,4489091.419339296
565.6606737000001,4524734.638734164
563.5218996,4602780.313740511
561.4048845,4720515.512116642
559.3093121,4871985.181841391
557.2348721,5047131.1114008315
555.1812597,5233896.63359775
553.1481756000001,5418499.908231083
551.1353259,5587820.206746479
549.1424218999999,5728830.858746279
547.1691801,5840499.331379877
545.2153222000001,5923942.475859937
543.2805745000001,5981305.3649859
541.3646685,6016075.7665265035
539.46734,6034254.32336299
537.5883299,6040784.973558137
535.7273833,6041437.291002358
533.8842498,6041560.404341831
532.0586836,6041388.501118255
530.2504428000001,6041144.958553122
528.45929,6041191.621940756
526.6849915,6041515.045644292
524.927318,6041397.204760717
523.186044,6041594.4455498615
521.4609475999999,6041040.200454224
519.7518110000001,6041354.302038369
518.0584200000001,6041373.060234512
516.3805639,6041489.882521087
514.7180356,6041065.6726525
513.0706316000001,6041338.134731129
511.43815149999995,6041531.82200129
509.82039860000003,6041035.567448338
508.2171791999999,6041963.542230995
506.628303,6041631.750883971
505.05358269999994,6041244.615347976
503.4928341,6041489.655766037
501.9458762,6041291.716674852
500.41253059999997,6040957.016507977
498.8926222,6041664.565861627
497.3859785,6041655.2675883835
495.89242989999997,6041338.520768657
494.4118094,6041481.712213052
492.943953,6041776.881177378
491.488699,6041141.888498942
490.04588839999997,6041520.80644518
488.6153648,6041168.973814627
487.19697429999997,6041542.537075199
485.7905654,6041806.045742231
484.39598889999996,6041472.363846215
483.01309800000007,6041521.374349131
481.64174840000004,6041433.992632701
480.28179789999996,6041237.760435965
478.93310639999993,6041101.506063673
477.59553619999997,6041236.599147521
476.2689517,6041332.411710763
474.9532192,6041989.441290546
473.6482074,6041530.955130732
472.35378679999997,6041450.562622787
471.06982989999995,6037168.14097903
469.79621110000005,6020042.960968405
468.53280700000005,5982788.081150708
467.2794956999999,5920739.76736734
466.0361575,5830786.656275127
464.80267410000005,5709657.19987585
463.5789295,5558683.180202714
462.364809,5375791.7851229925
461.1601998,5169179.528135382
459.9649909,4956923.626471747
458.7790727,4752618.834407885
457.6023374,4566750.965543265
456.4346788,4406340.64903881
455.2759921,4277079.5447471235
454.12617439999997,4182480.2126127137
452.9851239,4125236.8930455614
451.85274060000006,4104522.919672489
450.7289258,4116345.342559723
449.6135822,4158740.4300575308
448.5066141,4234069.733204411
447.407927,4341518.017343355
446.317428,4477868.72440011
445.23502520000005,4638526.687418488
444.1606283,4819489.737580766
443.0941482,5013821.353429809
442.03549699999996,5213612.777638249
440.9845882,5407187.873227691
439.9413364,5580388.693565793
438.9056575,5723223.22487182
437.87746860000004,5836158.211433358
436.85668780000003,5920474.989208533
435.8432345,5967722.496044383
434.83702930000004,5971657.159971389
433.83799369999997,5929054.681109552
432.84605039999997,5838222.528748637
431.8611232,5701989.879834347
430.8831369,5522912.565142811
429.9120175,5296866.523802853
428.94769169999995,5024302.716804887
427.9900874,4725391.72328772
427.03913370000004,4415612.43838285
426.0947602,4111857.119564715
425.1568978,3827041.155457132
424.22547829999996,3572294.3414976136
423.3004343,3357281.7185632307
422.3816994,3188825.480919612
421.4692081,3071721.076849846
420.56289569999996,3000689.613413548
419.66269850000003,2970758.7830771436
418.7685535,2976044.495558202
417.8803987,3010063.156472695
416.9981727,3068154.2915543537
416.12181519999996,3142899.821258065
415.25126639999996,3228592.06100309
414.38646760000006,3317536.026677264
413.5273605,3403972.531282664
412.673888,3479866.722639948
411.8259934,3541588.3838941464
410.9836208,3584225.9154787282
410.14671519999996,3607583.545330271
409.3152221,3612620.092857177
408.48908789999996,3604896.323521184
407.66825960000006,3590921.511489537
406.8526847,3579399.921525963
406.0423117,3580766.170622105
405.2370896,3604699.8810206763
404.43696800000004,3658065.01920114
403.64189730000004,3745670.3644900657
402.8518283,3867695.9983542017
402.0667126,4018943.5050053867
401.28650239999996,4190071.0658631623
400.5111505,4365388.768320078
399.7406101,4532070.632055982
398.9748353,4676501.7209116835
398.2137806,4785770.670477555
397.457401,4851948.396724261
396.7056521,4871120.809046716
395.9584903,4845973.99213908
395.2158722,4784995.411576783
394.4777551,4703550.488432503
393.7440968,4612516.29584232
393.0148555,4520633.209615463
392.2899901,4437559.081401828
391.56946,4368200.009814108
390.853225,4311752.732340905
390.1412452,4263764.021370687
389.43348169999996,4214892.81818758
388.7298955,4152957.6867171773
388.03044839999995,4069695.345572633
387.3351027,3958725.386812205
386.6438209,3812769.19579546
385.95656610000003,3632791.0685551083
385.2733019,3420626.819359058
384.5939922,3183707.068855916
383.9186014,2929739.000293592
383.2470943,2669155.9973937618
382.5794362,2411596.9457926867
381.9155926,2167069.6883247686
381.2555296,1942272.0278539825
380.59921360000004,1742989.1746896368
379.9466115,1571793.4617781825
379.29769039999996,1429352.8931198788
378.652418,1314741.9208667488
378.0107622,1224616.1078362283
377.37269130000004,1156242.613950372
376.73817410000004,1105704.0474986534
376.1071796,1068000.0889874338
375.47967719999997,1040326.4427976613
374.8556368,1019234.9200478914
374.2350283,1002504.2988732181
373.6178223,988369.1142163008
373.0039896,975402.2101891594
372.3935012,963000.7475353812
371.78632860000005,951811.4291726
371.1824436,941540.3570727312
370.5818182,933698.1359693536
369.98442489999996,928222.0354699148
369.39023629999997,926343.2895781908
368.7992255,928865.3759557508
368.2113658,935959.5056933792
367.6266307,947918.8206350108
367.0449943,964877.2534458848
366.4664305,986432.8657537616
365.89091410000003,1011837.5113218672
365.3184196,1040236.7798322795
364.7489221,1070456.4405739345
364.18239689999996,1101782.559116563
363.61881960000005,1133080.3712140918
363.058166,1163241.2802861258
362.50041219999997,1191595.07608695
361.94553460000003,1217387.9353783135
361.3935098,1240295.934812314
360.8443147,1259733.450687074
360.29792630000003,1275898.764863289
359.754322,1287864.2949241784
359.2134795,1295980.709357166
358.6753765,1299736.3273973863
358.1399912,1299143.2583437064
357.6073018,1294031.0547394282
357.077287,1284242.0976522148
356.5499253,1270019.3827491947
356.025196,1251296.226792509
355.50307799999996,1228260.9116338445
354.983551,1201366.1735017358
354.4665945,1170682.1622153241
353.95218839999995,1137104.2797492873
353.4403127,1100719.0919162796
352.9309478,1062224.7058041529
352.42407410000004,1021875.8106045614
351.9196722,980143.965165092
351.4177232,937191.8581134559
350.91820789999997,893442.6882858394
350.4211078,849206.2527769271
349.9264043,804555.4509266242
349.434079,759944.8711118542
348.9441137,715156.4845764191
348.45649060000005,670802.3352002089
347.97119169999996,627101.4936359371
347.48819960000003,584058.8926225326
347.0074967,542132.2864865896
346.5290657,501379.4848278914
346.0528897,462377.85051787936
345.5789517,425135.0485463803
345.1072349,389662.72977934
344.6377228,356340.25671373593
344.17039889999995,325290.3564300781
343.70524710000007,296439.69177994353
343.24225110000003,269740.6151577611
342.7813952,244972.9429821573
342.32266339999995,222303.02642760365
341.8660403,201464.6148183054
341.4115102,182371.8084270682
340.959058,164957.74554281222
340.5086685,149064.77098523718
340.06032660000005,134680.93679423365
339.6140175,121692.7591607264
339.1697264,110218.17252178123
338.7274388,100136.4697832389
338.28714019999995,91275.06182793174
337.8488164,83628.35843038051
337.41245310000005,76971.83871719996
336.9780363,71205.94412249996
336.5455522,66165.80160053963
336.114987,61692.58895148254
335.686327,57653.223896829004
335.2595588,53955.61898403108
334.834669,50538.93437576222
334.4116443,47344.84369152002
333.9904716,44345.42898471111
333.57113799999996,41665.487572181286
333.1536305,39256.60085417422
332.73793639999997,37121.8741599153
332.32404310000004,35226.82652819813
331.91193799999996,33537.82734504601
331.5016088,32017.731812085112
331.0930432,30701.396720592576
330.6862289,29512.557333730514
330.281154,28443.70943401604
329.8778065,27368.197450883377
329.47617460000004,26364.020902216642
329.07624649999997,25388.287306705293
328.6780106,24469.782371002548
328.2814555,23579.528683271874
327.88656960000003,22716.011692893375
327.4933418,21866.6813531116
327.1017607,21070.409596629124
326.7118154,20262.25017060741
326.32349480000005,19490.652042024918
325.93678789999996,18760.575433948903
325.5516841,18047.857376690325
325.16817260000005,17363.24380861519
324.7862428,16720.25928927059
324.40588419999995,16105.619966697455
324.0270864,15526.311824016277
323.649839,14988.857902273296
323.2741319,14463.40321528758
322.8999548,13989.433649756009
322.5272977,13529.268525355075
322.1561508,13084.346532811269
321.786504,12645.062684643557
321.4183476,12248.604198096755
321.0516719,11830.239225967787
320.6864673,11421.445025487808
320.3227243,11003.222047774949
319.96043330000003,10601.180136923516
319.5995851,10194.668372672366
319.2401704,9798.617918580572
318.8821799,9389.57039865981
318.5256045,8974.949624016243
318.1704352,8574.756179707147
317.8166631,8185.965325564735
317.4642791,7788.273171547783
317.1132746,7393.367093574746
316.76364069999994,6998.318367530028
316.4153688,6619.1645098520785
316.06845039999996,6228.281888241284
315.72287689999996,5856.956392429529
315.37863980000003,5491.045207592813
315.0357308,5123.508969706366
314.6941415,4774.168780965072
314.3538639,4430.290278054094
314.0148896,4102.072580165964
313.6772106,3793.0707466329077
313.3408189,3485.888502801282
313.00570639999995,3195.0354078181144
312.67186549999997,2926.7682227133314
312.33928810000003,2673.092923889758
312.0079665,2423.309658635313
311.6778931,2193.188062177401
311.34906010000003,1983.2044084408108
311.0214601,1778.5505698409215
310.6950856,1590.3342038403302
310.369929,1411.5344398595425
310.04598300000004,1251.402404108941
309.7232403,1105.6990853834977
309.4016935,962.907835117827
309.0813356,838.012857518593
308.7621594,719.9857562460187
308.4441577,615.2701747744306
308.1273236,522.4979061318003
307.8116501,442.32336234898935
307.49713019999996,323.377724487126
307.18375710000004,235.95323146228603
306.871524,161.9374076053326
306.5604242,110.04632239214816
306.2504509,66.91001802997087
