wave,flux
1817.164934,5.199227313497381
1790.1022050000001,-16.826072193891328
1763.812741,17.92792466491495
1738.2646949999998,21.720014794590092
1713.427949,595.0855546724182
1689.273995,1833.685823395864
1665.7758310000002,3754.9504397134087
1642.907862,6328.314912351501
1620.64581,9575.459671989463
1598.9666300000001,13486.080116952564
1577.8484310000001,18052.095425181345
1557.270407,23267.11919098922
1537.212767,28154.94729112353
1517.65668,32556.89083659595
1498.5842089999999,36370.57404784358
1479.978265,39674.88885417573
1461.822555,42460.704216703765
1444.101535,44723.239330128876
1426.800368,46477.47694487454
1409.904887,47657.05214165135
1393.401553,48813.12763414473
1377.2774220000001,49979.949226830155
1361.520115,51021.477859912775
1346.117782,52143.74545658684
1331.059081,53219.664115641084
1316.3331449999998,54267.243143387146
1301.92956,55354.61816659682
1287.838342,56382.62481569401
1274.049912,57393.84388181031
1260.5550779999999,58469.51917244228
1247.345017,59583.73429451808
1234.4112519999999,60754.247257431416
1221.74564,61883.75589158497
1209.340352,63054.09255055093
1197.187859,64431.418544596774
1185.28092,65644.91627733651
1173.612564,66933.4973116234
1162.1760800000002,68284.94042232777
1150.9650060000001,69603.05736854156
1139.973115,70880.67362002493
1129.194406,72187.2344691658
1118.623093,73462.35918988897
1108.253594,74717.52768499259
1098.0805269999998,75843.88040353775
1088.098695,77210.71381514375
1078.303081,78709.0090053655
1068.688841,80533.54799054196
1059.251295,82698.29459992445
1049.9859199999999,85460.21201844605
1040.8883449999998,89000.66544666779
1031.9543429999999,93338.74771587436
1023.1798259999999,98354.7820436479
1014.5608390000001,104254.28078658489
1006.0935529999999,110613.96627544
997.774265,117559.96653577164
989.5993858999999,124682.39971939991
981.5654412999999,131688.1561202321
973.6690651,138568.3581916982
965.9069952,144669.72427225753
958.2760697000001,150347.4924022033
950.7732231000001,155184.070863282
943.3954827,158909.81551807065
936.1399648,161860.0883253417
929.0038716,163937.0647705703
921.9844879000001,165375.38303059162
915.0791782,166866.44961318927
908.2853836000002,167667.15833492618
901.6006193,169470.68052149375
895.0224714,171524.90726132735
888.548595,175032.83815010855
882.1767113,180298.87869696246
875.9046055,187252.92886684733
869.7301242999998,196293.42830459191
863.6511742999999,208560.83962064015
857.6657193,224166.532470669
851.7717787,246325.2961368444
845.9674256000001,274106.3011769872
840.2507849,308475.8425098059
834.6200316000001,351591.50590642396
829.0733892000001,402294.15416006546
823.6091279,459623.30192462343
818.2255633999999,523019.92516158154
812.9210552000001,590459.3787846627
807.694005,658544.5572836605
802.5428559,723390.9504454439
797.4660904,790970.058713854
792.4622299,856203.1679319129
787.5298327,926309.2287150064
782.6674933999999,1007064.6382443622
777.8738417999999,1103156.3463176056
773.1475413,1227068.2276314527
768.4872882999999,1380706.267570014
763.8918112000001,1576353.3331995094
759.3598692,1815688.2010055382
754.8902515999999,2094500.84225666
750.4817767999999,2401451.530714856
746.1332914,2726476.589894949
741.8436694000001,3054931.0562130436
737.6118116,3371338.0628678175
733.4366444,3662597.048652828
729.3171195,3918286.2821458764
725.2522127999999,4155048.5291218064
721.2409241,4360719.505642505
717.282276,4546731.866198714
713.3753136,4717445.509849595
709.5191037000001,4887228.171832363
705.7127343,5057595.563173487
701.9553139,5238616.148347363
698.2459709,5418963.250200646
694.5838534,5579712.4640012365
690.9681281000001,5712900.918387027
687.3979803,5824492.739220584
683.8726131,5911893.648256157
680.3912472999999,5980246.714399953
676.9531202000001,6021755.974150715
673.557486,6038299.039974318
670.2036149,6043335.87076766
666.8907926,6041583.484862456
663.6183202999999,6042369.526178582
660.3855139,6040140.380975288
657.1917038,6042273.023720435
654.0362346,6038456.696033877
650.9184646000001,6040828.747696142
647.8377654,6040166.581920467
644.7935217999999,6039570.02690278
641.7851312999999,6041142.530898915
638.8120038,6041841.807812055
635.8735614,6040287.167940556
632.9692378999999,6043361.122648879
630.0984786,6042023.6141023375
627.2607402000001,6040239.736435186
624.4554901,6041977.233680667
621.6822068,6040780.504018954
618.940379,6040709.2824355075
616.2295054,6041308.363184272
613.549095,6041300.223505403
610.8986664,6041421.184377035
608.2777476,6041145.259019458
605.6858758999999,6042034.613464845
603.1225977000001,6041298.498618972
600.5874682,6041553.987039714
598.0800512,6041621.262990426
595.5999188999999,6041927.973815783
593.1466518,6041122.586838933
590.7198384999999,6040926.686399361
588.3190752,6041317.994619971
585.943966,6041472.365143274
583.5941226,6041416.934249992
581.2691637,6040590.0981448665
578.9687155,6037800.735421947
576.692411,6034076.691759431
574.4398902,6029676.564861765
572.2107997,6025966.910883457
570.0047927,6022133.183540252
567.8215287,6018729.1631674
565.6606737000001,6014727.430745637
563.5218996,6012828.85924126
561.4048845,6013562.99566591
559.3093121,6017782.341485998
557.2348721,6021593.0121828485
555.1812597,6026240.552762592
553.1481756000001,6029485.826456604
551.1353259,6033233.270671873
549.1424218999999,6037337.233191326
547.1691801,6040219.979466554
545.2153222000001,6041638.59757128
543.2805745000001,6041654.009634263
541.3646685,6041475.2275481485
539.46734,6041707.414191867
537.5883299,6041705.935653791
535.7273833,6041691.924233235
533.8842498,6041856.048356643
532.0586836,6041300.748615458
530.2504428000001,6042045.512582967
528.45929,6041270.673172001
526.6849915,6041391.1423101965
524.927318,6041497.7984669125
523.186044,6041129.35768625
521.4609475999999,6041768.938405744
519.7518110000001,6041068.02543651
518.0584200000001,6041463.293448371
516.3805639,6041268.511692122
514.7180356,6041308.3929274175
513.0706316000001,6041257.08904233
511.43815149999995,6041393.234722182
509.82039860000003,6041740.247830119
508.2171791999999,6041503.42136882
506.628303,6041123.398239433
505.05358269999994,6041265.146847191
503.4928341,6041698.051101803
501.9458762,6040860.323395119
500.41253059999997,6041243.145496755
498.8926222,6041508.28010716
497.3859785,6041618.312616262
495.89242989999997,6041176.164828357
494.4118094,6041368.553091829
492.943953,6041396.628397647
491.488699,6041446.976541123
490.04588839999997,6041411.1349737635
488.6153648,6041532.376496092
487.19697429999997,6041494.673245562
485.7905654,6041179.647341742
484.39598889999996,6041295.4595759325
483.01309800000007,6041681.637441212
481.64174840000004,6041317.88699757
480.28179789999996,6041418.449358162
478.93310639999993,6041517.2048289925
477.59553619999997,6041602.466857044
476.2689517,6041766.663323121
474.9532192,6041667.820200024
473.6482074,6041150.498914429
472.35378679999997,6041166.0743007185
471.06982989999995,6041147.075792621
469.79621110000005,6041529.069726893
468.53280700000005,6039604.954897008
467.2794956999999,6029240.87162479
466.0361575,6003086.187156508
464.80267410000005,5955734.64075513
463.5789295,5885823.557521539
462.364809,5790696.529992455
461.1601998,5668916.287547314
459.9649909,5518843.412155589
458.7790727,5344032.366865759
457.6023374,5159379.094221095
456.4346788,4976572.181868554
455.2759921,4806230.630055463
454.12617439999997,4654471.49617157
452.9851239,4525640.0232676715
451.85274060000006,4426397.58471609
450.7289258,4361190.633287868
449.6135822,4334929.181106002
448.5066141,4345843.836969011
447.407927,4396449.227172237
446.317428,4483375.633380113
445.23502520000005,4603453.013843883
444.1606283,4751450.648614537
443.0941482,4921706.555596722
442.03549699999996,5106514.374424165
440.9845882,5295650.140459805
439.9413364,5476723.846805288
438.9056575,5635687.885418694
437.87746860000004,5765297.509016159
436.85668780000003,5860334.694639092
435.8432345,5913220.780727457
434.83702930000004,5917891.179794657
433.83799369999997,5870347.048082221
432.84605039999997,5770066.877116305
431.8611232,5618238.621741373
430.8831369,5419214.699010571
429.9120175,5172874.366240974
428.94769169999995,4891948.966210955
427.9900874,4592862.435513167
427.03913370000004,4289356.15405459
426.0947602,3995678.1649289005
425.1568978,3723671.1524230274
424.22547829999996,3482889.195618128
423.3004343,3280865.544676118
422.3816994,3124761.5590810874
421.4692081,3011999.37604206
420.56289569999996,2938937.1219496205
419.66269850000003,2900800.0783484112
418.7685535,2892136.016008425
417.8803987,2908616.256737436
416.9981727,2944586.136845256
416.12181519999996,2995619.903813778
415.25126639999996,3055384.301739525
414.38646760000006,3118485.695625535
413.5273605,3179002.417202765
412.673888,3231635.645452063
411.8259934,3270911.495205068
410.9836208,3293028.610024061
410.14671519999996,3296167.7743288837
409.3152221,3279298.463036851
408.48908789999996,3245520.1776517043
407.66825960000006,3197756.041214374
406.8526847,3142713.009081225
406.0423117,3085965.8116865656
405.2370896,3035668.898005668
404.43696800000004,2997445.1620175545
403.64189730000004,2976261.987206777
402.8518283,2975028.8469435023
402.0667126,2993670.4991884814
401.28650239999996,3028154.0149882864
400.5111505,3071827.877494226
399.7406101,3118645.488112208
398.9748353,3162228.0776635082
398.2137806,3195624.7594543383
397.457401,3214260.5256821318
396.7056521,3216481.64012366
395.9584903,3203091.5339916605
395.2158722,3178880.1922413544
394.4777551,3152569.9732473087
393.7440968,3129578.5335481637
393.0148555,3113983.922402689
392.2899901,3110994.7174260123
391.56946,3121175.5776312095
390.853225,3142199.0294856923
390.1412452,3169259.115475029
389.43348169999996,3195814.1353234025
388.7298955,3211272.507967201
388.03044839999995,3208998.8818180026
387.3351027,3183505.257767345
386.6438209,3129992.28895868
385.95656610000003,3047432.403659861
385.2733019,2938099.1340944627
384.5939922,2806284.6854304904
383.9186014,2659131.9704881688
383.2470943,2505156.9443586925
382.5794362,2352403.400604756
381.9155926,2209130.416892232
381.2555296,2082976.7511241212
380.59921360000004,1980639.3722179446
379.9466115,1905560.5469563254
379.29769039999996,1860014.867434332
378.652418,1843673.6542741773
378.0107622,1854727.4647510685
377.37269130000004,1888956.6576130225
376.73817410000004,1940020.323300361
376.1071796,2000816.806264351
375.47967719999997,2063618.26895102
374.8556368,2120858.2922941777
374.2350283,2164673.4891473367
373.6178223,2189369.125859541
373.0039896,2190203.587209173
372.3935012,2165559.2147660456
371.78632860000005,2115286.3790760054
371.1824436,2042015.3895371002
370.5818182,1949817.235466558
369.98442489999996,1844260.7004698915
369.39023629999997,1731250.335413171
368.7992255,1616899.4420079018
368.2113658,1506873.1419823263
367.6266307,1405580.4106619246
367.0449943,1316504.3378011605
366.4664305,1240814.3550960538
365.89091410000003,1178991.1559041995
365.3184196,1130219.8706510698
364.7489221,1093443.5703254358
364.18239689999996,1066190.3356383913
363.61881960000005,1046222.4452884423
363.058166,1031359.4576301869
362.50041219999997,1019892.6715304577
361.94553460000003,1010199.7388088857
361.3935098,1000616.4976123259
360.8443147,990826.9181338751
360.29792630000003,980436.48268425
359.754322,968835.0360054416
359.2134795,955957.9659143692
358.6753765,941901.6800123369
358.1399912,926451.0107306752
357.6073018,909506.766960192
357.077287,891319.9576451582
356.5499253,871865.3165770363
356.025196,851086.8263029343
355.50307799999996,829065.1078102227
354.983551,805713.8859524884
354.4665945,781606.9675318962
353.95218839999995,756292.6250181594
353.4403127,730276.8649834105
352.9309478,703432.6224501625
352.42407410000004,676105.6050946418
351.9196722,648343.7009934218
351.4177232,620103.8800283975
350.91820789999997,591582.51832331
350.4211078,562869.7593038868
349.9264043,534178.2059848998
349.434079,505311.7782650054
348.9441137,476625.37189302006
348.45649060000005,448077.4078912509
347.97119169999996,419962.6310448989
347.48819960000003,392219.09329025727
347.0074967,365215.4150231825
346.5290657,338907.3212920027
346.0528897,313680.0132307883
345.5789517,289422.9700591273
345.1072349,266475.44606960274
344.6377228,244816.52235939482
344.17039889999995,224529.70504485746
343.70524710000007,205660.49310967038
343.24225110000003,188095.03387412452
342.7813952,172010.33316161664
342.32266339999995,157103.58927065827
341.8660403,143567.36625929218
341.4115102,131132.37168828314
340.959058,119820.10498924932
340.5086685,109576.85441064404
340.06032660000005,100222.94083691604
339.6140175,91859.90866564424
339.1697264,84380.95369126259
338.7274388,77721.58912667102
338.28714019999995,71908.54836161688
337.8488164,66720.634115319
337.41245310000005,62212.11828914787
336.9780363,58242.467654325905
336.5455522,54703.243585693876
336.114987,51509.509528657414
335.686327,48563.18979332017
335.2595588,45848.954956969435
334.834669,43292.8990979631
334.4116443,40871.595191289445
333.9904716,38595.83789780249
333.57113799999996,36456.94982525271
333.1536305,34506.67798092672
332.73793639999997,32779.20255355298
332.32404310000004,31195.057722031386
331.91193799999996,29800.377271271085
331.5016088,28528.14476212463
331.0930432,27404.426130523065
330.6862289,26374.65157410562
330.281154,25451.431132852733
329.8778065,24559.814621442318
329.47617460000004,23687.25521362707
329.07624649999997,22875.11592620237
328.6780106,22091.890265672944
328.2814555,21321.86368832137
327.88656960000003,20535.624887326547
327.4933418,19723.27609447765
327.1017607,18867.70393941503
326.7118154,17975.358690818535
326.32349480000005,17033.572634912944
325.93678789999996,16066.463113074537
325.5516841,15069.29432307165
325.16817260000005,14065.458832242344
324.7862428,13105.924297259044
324.40588419999995,12244.387870759008
324.0270864,11471.576243173928
323.649839,10779.107283840147
323.2741319,10166.728021824836
322.8999548,9674.737444878332
322.5272977,9224.813669962434
322.1561508,8861.250554860186
321.786504,8518.993178098452
321.4183476,8185.5645935111315
321.0516719,7868.152974409539
320.6864673,7552.509511781416
320.3227243,7236.605717594099
319.96043330000003,6935.470637662888
319.5995851,6630.673560229677
319.2401704,6316.458528056723
318.8821799,6028.829029727127
318.5256045,5740.464752892342
318.1704352,5453.3285147839915
317.8166631,5173.049678093728
317.4642791,4894.431196283889
317.1132746,4628.291823958877
316.76364069999994,4370.633905556024
316.4153688,4110.8218697128605
316.06845039999996,3861.796989464965
315.72287689999996,3612.1223694502187
315.37863980000003,3382.068403179831
315.0357308,3156.0000613733446
314.6941415,2932.938637515145
314.3538639,2727.440433022355
314.0148896,2517.606262800121
313.6772106,2321.795662227917
313.3408189,2146.023616604993
313.00570639999995,1957.5800990271343
312.67186549999997,1792.8704209520727
312.33928810000003,1635.8314825707025
312.0079665,1483.3988066985034
311.6778931,1343.9836807953625
311.34906010000003,1218.4645889724513
311.0214601,1091.832741468872
310.6950856,975.1407782809919
310.369929,867.672903553891
310.04598300000004,764.5395982435492
309.7232403,673.5502221963299
309.4016935,589.6007207923408
309.0813356,507.8351054847081
308.7621594,441.46045128773545
308.4441577,378.5377214122293
308.1273236,320.97757917101416
307.8116501,268.912691660375
307.49713019999996,201.48195359293712
307.18375710000004,149.79348035371626
306.871524,97.92942169823476
306.5604242,64.65515903413765
306.2504509,34.87721934066718
