wave,flux
1817.164934,-0.34354761828792796
1790.1022050000001,2.214956000529873
1763.812741,-1.008446163294226
1738.2646949999998,2.8492769586144897
1713.427949,4.4394481077563706
1689.273995,0.9708202580129496
1665.7758310000002,2.3253391359637456
1642.907862,-1.4140027050652977
1620.64581,6.80761679697908
1598.9666300000001,4.184464938613522
1577.8484310000001,2.3230423271613243
1557.270407,16.058410355940453
1537.212767,77.5480406451336
1517.65668,186.0707678596869
1498.5842089999999,364.9462723171025
1479.978265,609.3830458113947
1461.822555,883.8474278114015
1444.101535,1246.8115178767953
1426.800368,1759.3728590443475
1409.904887,2758.612322666662
1393.401553,4161.215680525133
1377.2774220000001,6104.273888807739
1361.520115,8559.531631246786
1346.117782,11541.978532242629
1331.059081,15029.90081396012
1316.3331449999998,19051.63976127993
1301.92956,23462.090870237407
1287.838342,27757.099208678188
1274.049912,31881.63218297476
1260.5550779999999,35568.999132122786
1247.345017,38882.53459368476
1234.4112519999999,41817.42819260507
1221.74564,44436.892512869
1209.340352,46804.87527368726
1197.187859,48793.96984837626
1185.28092,50739.86303703458
1173.612564,52591.449437638264
1162.1760800000002,54567.36829224873
1150.9650060000001,56734.55450795037
1139.973115,59079.50439221853
1129.194406,61454.26381338754
1118.623093,63925.075553740986
1108.253594,66693.27174155688
1098.0805269999998,69633.11045063872
1088.098695,72754.95247828793
1078.303081,76158.55661806183
1068.688841,79685.09729901805
1059.251295,83326.39646902062
1049.9859199999999,87104.95168847963
1040.8883449999998,90817.04308206646
1031.9543429999999,94500.38689632704
1023.1798259999999,98154.94418321985
1014.5608390000001,101563.30151990642
1006.0935529999999,104970.5968133516
997.774265,108118.56727472131
989.5993858999999,111362.231909604
981.5654412999999,114566.21163689069
973.6690651,117874.09201369426
965.9069952,121308.02568950989
958.2760697000001,124984.41109333685
950.7732231000001,129060.35591642444
943.3954827,133446.65557070426
936.1399648,138464.04919416946
929.0038716,143788.21602759475
921.9844879000001,149363.17796322991
915.0791782,155598.72433088132
908.2853836000002,162275.9539545632
901.6006193,169413.3017527695
895.0224714,176989.05285223655
888.548595,184698.41373332255
882.1767113,192832.21896155065
875.9046055,201231.08877268282
869.7301242999998,209890.599496812
863.6511742999999,218954.48461167602
857.6657193,227370.9679860645
851.7717787,235802.03739857255
845.9674256000001,243878.8340455389
840.2507849,251309.5336851077
834.6200316000001,257960.07265058
829.0733892000001,264127.58661312505
823.6091279,269508.6513599217
818.2255633999999,274286.12516853487
812.9210552000001,279041.04679565306
807.694005,284327.9535175337
802.5428559,289428.34316136193
797.4660904,295985.9650499278
792.4622299,303194.38803679874
787.5298327,312998.8614713316
782.6674933999999,324704.83259939443
777.8738417999999,338820.29462589684
773.1475413,357414.1081253843
768.4872882999999,379761.91230281757
763.8918112000001,407004.52815431525
759.3598692,439097.6055092957
754.8902515999999,476649.1972784212
750.4817767999999,520655.7351519061
746.1332914,570929.910996918
741.8436694000001,625405.5939071672
737.6118116,687223.4723079731
733.4366444,752445.3319402309
729.3171195,824634.6823011065
725.2522127999999,900302.9490673805
721.2409241,984976.0263312426
717.282276,1079426.0011261087
713.3753136,1188480.2663545043
709.5191037000001,1316733.1317909858
705.7127343,1468735.5456877437
701.9553139,1649913.0128353962
698.2459709,1862936.7547023292
694.5838534,2108645.841283572
690.9681281000001,2388061.569024496
687.3979803,2699890.7533548395
683.8726131,3039771.503929108
680.3912472999999,3401017.4138826625
676.9531202000001,3771480.429819826
673.557486,4136061.0940034636
670.2036149,4488730.557528782
666.8907926,4814550.552022397
663.6183202999999,5108684.765897679
660.3855139,5364733.572284226
657.1917038,5573737.161041572
654.0362346,5733394.93721944
650.9184646000001,5851469.053101729
647.8377654,5934787.647305292
644.7935217999999,5988039.993357495
641.7851312999999,6020192.500211217
638.8120038,6036404.968842705
635.8735614,6041525.351581327
632.9692378999999,6041787.48768941
630.0984786,6041105.064585308
627.2607402000001,6041125.668060153
624.4554901,6040198.544013921
621.6822068,6040611.608408041
618.940379,6041679.101360075
616.2295054,6041530.28555624
613.549095,6041395.867593301
610.8986664,6041069.416898983
608.2777476,6041701.860584227
605.6858758999999,6041338.87247468
603.1225977000001,6041194.242153708
600.5874682,6040952.249595944
598.0800512,6041146.65001355
595.5999188999999,6041743.2023934815
593.1466518,6041455.136173721
590.7198384999999,6041297.55210358
588.3190752,6041409.686090877
585.943966,6041721.51873859
583.5941226,6041254.089326919
581.2691637,6041442.121917217
578.9687155,6041640.94720367
576.692411,6041565.101758882
574.4398902,6041332.535216518
572.2107997,6041459.196213705
570.0047927,6041241.704051632
567.8215287,6041129.077217418
565.6606737000001,6041616.834572352
563.5218996,6041290.195639232
561.4048845,6041887.954711641
559.3093121,6041384.443669368
557.2348721,6041886.4379932415
555.1812597,6041340.947458778
553.1481756000001,6041601.139433863
551.1353259,6041189.1689036675
549.1424218999999,6041559.931895457
547.1691801,6041071.980688508
545.2153222000001,6041668.172800924
543.2805745000001,6041294.818190094
541.3646685,6041095.732900782
539.46734,6041200.567186043
537.5883299,6040896.983020647
535.7273833,6041725.917384688
533.8842498,6041667.682376882
532.0586836,6041563.273486338
530.2504428000001,6041764.640494462
528.45929,6041550.534471371
526.6849915,6041453.163939472
524.927318,6041676.062850899
523.186044,6041259.786580118
521.4609475999999,6041503.27528685
519.7518110000001,6041288.145867436
518.0584200000001,6041427.476815438
516.3805639,6041470.51322298
514.7180356,6041054.013799925
513.0706316000001,6041795.405961948
511.43815149999995,6041631.315645804
509.82039860000003,6041215.20766556
508.2171791999999,6041176.724830813
506.628303,6041320.631493061
505.05358269999994,6041262.530646281
503.4928341,6041252.907090298
501.9458762,6041886.673124461
500.41253059999997,6041899.877643116
498.8926222,6041550.354902209
497.3859785,6041509.31853915
495.89242989999997,6041334.973956459
494.4118094,6041746.850630869
492.943953,6041499.822843542
491.488699,6041443.827737172
490.04588839999997,6041649.56227609
488.6153648,6041527.827877016
487.19697429999997,6041521.6965454975
485.7905654,6041412.026685349
484.39598889999996,6041851.698429379
483.01309800000007,6041468.466648409
481.64174840000004,6041124.312184736
480.28179789999996,6041720.968701879
478.93310639999993,6041604.9562679585
477.59553619999997,6041853.407606402
476.2689517,6041495.49856953
474.9532192,6041873.297927498
473.6482074,6041721.659641262
472.35378679999997,6040891.454347348
471.06982989999995,6041676.099153691
469.79621110000005,6041583.767721041
468.53280700000005,6041210.712336085
467.2794956999999,6041753.771528178
466.0361575,6041538.96912387
464.80267410000005,6041297.558810599
463.5789295,6041443.276733244
462.364809,6041505.8921663165
461.1601998,6041022.78909512
459.9649909,6041449.286831913
458.7790727,6041636.193498973
457.6023374,6041499.897881645
456.4346788,6040821.768226317
455.2759921,6041204.954851389
454.12617439999997,6041241.363757582
452.9851239,6041617.7396296365
451.85274060000006,6041063.937724466
450.7289258,6041225.6029263735
449.6135822,6041340.030195719
448.5066141,6041864.714961839
447.407927,6041655.177468153
446.317428,6041932.798674768
445.23502520000005,6041044.0670921365
444.1606283,6041623.236291167
443.0941482,6041567.792030063
442.03549699999996,6041042.792026212
440.9845882,6041337.044313547
439.9413364,6041415.177942126
438.9056575,6041390.146894186
437.87746860000004,6041725.996745149
436.85668780000003,6041643.525094454
435.8432345,6041338.843758905
434.83702930000004,6041036.254254366
433.83799369999997,6041235.089372758
432.84605039999997,6041374.299027807
431.8611232,6041620.06589637
430.8831369,6041441.031330858
429.9120175,6041182.814344051
428.94769169999995,6041342.693139463
427.9900874,6041323.762239014
427.03913370000004,6041230.818483353
426.0947602,6041501.089314034
425.1568978,6041525.997055353
424.22547829999996,6041676.559355683
423.3004343,6041559.666560525
422.3816994,6041556.417331382
421.4692081,6041323.702236602
420.56289569999996,6041429.068082617
419.66269850000003,6041331.675297806
418.7685535,6041400.021631975
417.8803987,6041092.064316368
416.9981727,6041502.8594176425
416.12181519999996,6041148.19454917
415.25126639999996,6041523.118329481
414.38646760000006,6037476.399784032
413.5273605,6027955.875286467
412.673888,6012758.383846207
411.8259934,5993284.12738377
410.9836208,5969790.703342858
410.14671519999996,5942646.064645408
409.3152221,5911945.796163376
408.48908789999996,5874626.140994377
407.66825960000006,5835588.37350512
406.8526847,5792148.54837384
406.0423117,5740297.83979933
405.2370896,5671920.545568059
404.43696800000004,5579996.784573915
403.64189730000004,5456826.948543777
402.8518283,5299866.497652312
402.0667126,5107836.241070424
401.28650239999996,4880140.504411335
400.5111505,4619336.771260348
399.7406101,4333534.222688039
398.9748353,4032029.573216558
398.2137806,3723892.6661883136
397.457401,3418054.85284746
396.7056521,3121768.9503371012
395.9584903,2840413.6991667044
395.2158722,2576245.5462787333
394.4777551,2331094.544403477
393.7440968,2103886.4134107246
393.0148555,1896076.7605782668
392.2899901,1705608.703603228
391.56946,1531995.8940837234
390.853225,1374939.0848263095
390.1412452,1234725.5836297504
389.43348169999996,1111479.5029863438
388.7298955,1005337.2646269442
388.03044839999995,916554.6804629808
387.3351027,844789.3392266689
386.6438209,789662.3808403424
385.95656610000003,750204.2139268888
385.2733019,725181.5838847145
384.5939922,712962.1784739484
383.9186014,711551.0314411244
383.2470943,719022.3779351348
382.5794362,732795.7426454986
381.9155926,749834.4634328948
381.2555296,767151.1619352655
380.59921360000004,782101.7123303113
379.9466115,791969.5938828381
379.29769039999996,794474.1886703129
378.652418,787896.9658709003
378.0107622,771708.9241717701
377.37269130000004,745668.2052516618
376.73817410000004,710742.6961015844
376.1071796,668330.5152484521
375.47967719999997,620364.2612309228
374.8556368,569271.1580385037
374.2350283,517099.8846581085
373.6178223,466423.85101803776
373.0039896,418633.35284923844
372.3935012,375176.56036611367
371.78632860000005,336696.0008476904
371.1824436,303544.007279757
370.5818182,275619.0900852187
369.98442489999996,252570.23487210396
369.39023629999997,233626.26284811462
368.7992255,217805.51392836566
368.2113658,204491.67344263554
367.6266307,193051.830411665
367.0449943,182900.17841270167
366.4664305,173672.71487177679
365.89091410000003,165134.92224898556
365.3184196,157008.98849324032
364.7489221,149558.5631407202
364.18239689999996,142724.0370993523
363.61881960000005,136472.59504610562
363.058166,130766.13209742637
362.50041219999997,125523.21408854795
361.94553460000003,120781.41948844107
361.3935098,116440.07277495446
360.8443147,112415.99622150726
360.29792630000003,108472.15765223252
359.754322,104588.68663248954
359.2134795,100820.02048806033
358.6753765,97141.58416949798
358.1399912,93491.80752627696
357.6073018,89645.29989160724
357.077287,85690.39513834883
356.5499253,81747.07980928503
356.025196,77748.4673072191
355.50307799999996,73710.54833199314
354.983551,69569.51861816984
354.4665945,65215.64594581459
353.95218839999995,60809.8056673223
353.4403127,56671.28048636267
352.9309478,52747.732010221865
352.42407410000004,48963.58930032668
351.9196722,45254.44338904318
351.4177232,41765.20429121323
350.91820789999997,38504.130983632574
350.4211078,35677.71075905232
349.9264043,33209.903274294265
349.434079,30923.305045395966
348.9441137,28847.352607111625
348.45649060000005,26975.27516890093
347.97119169999996,25438.7445796003
347.48819960000003,24119.818606261815
347.0074967,22884.56135799784
346.5290657,21653.759167648925
346.0528897,20422.12323777399
345.5789517,19119.673539161307
345.1072349,17781.77341461279
344.6377228,16369.3933169108
344.17039889999995,14840.9987130465
343.70524710000007,13292.11541089158
343.24225110000003,11842.008019435396
342.7813952,10497.805321277388
342.32266339999995,9263.409717389211
341.8660403,8191.658407529528
341.4115102,7290.081566093728
340.959058,6536.254151748167
340.5086685,5930.07333990364
340.06032660000005,5418.6311151565615
339.6140175,4930.3626125327555
339.1697264,4464.495056330578
338.7274388,4017.1191133645
338.28714019999995,3596.846672325549
337.8488164,3233.0693697864335
337.41245310000005,2912.193528546564
336.9780363,2649.3602090354793
336.5455522,2441.988818100776
336.114987,2278.004927977775
335.686327,2165.871389015532
335.2595588,2104.55907792792
334.834669,2046.829787665829
334.4116443,2006.761789182648
333.9904716,1964.8389619618745
333.57113799999996,1914.8146849925927
333.1536305,1873.0823941030758
332.73793639999997,1836.2487963042486
332.32404310000004,1798.3375972958756
331.91193799999996,1751.8900318569333
331.5016088,1699.3708470713614
331.0930432,1619.987237828603
330.6862289,1520.1195834859284
330.281154,1398.8533531344385
329.8778065,1259.172622821791
329.47617460000004,1103.2260591319214
329.07624649999997,922.9189505220506
328.6780106,723.7787504034669
328.2814555,544.2878025947408
327.88656960000003,391.21596097786863
327.4933418,265.0813203646318
327.1017607,162.88721794478036
326.7118154,83.90365236748634
326.32349480000005,36.688314271637545
325.93678789999996,11.354701288837685
325.5516841,6.1131124299343895
325.16817260000005,3.7207049993757337
324.7862428,1.1895394860218331
324.40588419999995,3.843713915196741
324.0270864,2.753919277839016
323.649839,4.392596153917896
323.2741319,-0.9019159088695324
322.8999548,1.9447327072021476
322.5272977,4.572933103440326
322.1561508,3.44060431089742
321.786504,1.9815757923262591
321.4183476,5.195864967741544
321.0516719,3.9574738666530336
320.6864673,0.7046666762147971
320.3227243,5.207698584848579
319.96043330000003,0.20665353422520893
319.5995851,1.602017475921939
319.2401704,7.419895896644716
318.8821799,-1.2593324124939826
318.5256045,-1.0865175271114786
318.1704352,6.500469015872968
317.8166631,3.4831373727657065
317.4642791,1.4508764585544032
317.1132746,2.9317990773397686
316.76364069999994,1.1801734523489569
316.4153688,-1.10734657226138
316.06845039999996,5.422210567861026
315.72287689999996,3.4908590096777057
315.37863980000003,-1.1481298811108551
315.0357308,1.3268135688044036
314.6941415,2.92450833896712
314.3538639,-0.9129273522484932
314.0148896,2.737968724145924
313.6772106,1.1643814699359665
313.3408189,-1.6386031109606731
313.00570639999995,2.7507579441196146
312.67186549999997,0.9208126938746526
312.33928810000003,3.5159203871174998
312.0079665,2.2650407619801864
311.6778931,0.3807190428232725
311.34906010000003,5.9148601557323
311.0214601,-1.5030265557698077
310.6950856,-2.7864085463181367
310.369929,-1.6053364967946049
310.04598300000004,1.0122111872324722
309.7232403,-2.3547162652626974
309.4016935,4.813039237690823
309.0813356,-1.824146302123708
308.7621594,2.8892964910278307
308.4441577,0.34737127392444833
308.1273236,-3.640100347481202
307.8116501,-1.1224391040164856
307.49713019999996,-0.13047091399036087
307.18375710000004,-3.670287717455408
306.871524,-5.139617739197899
306.5604242,-1.2058543255545129
306.2504509,1.8226942996186175
