wave,flux
1817.164934,2.0806196135417183
1790.1022050000001,3.0621922825585983
1763.812741,0.2602467589013869
1738.2646949999998,-1.4805591052010567
1713.427949,11.971193342509599
1689.273995,34.5007507095004
1665.7758310000002,61.50425498892599
1642.907862,102.53277227253788
1620.64581,153.90337165311692
1598.9666300000001,216.09554388564362
1577.8484310000001,288.5873514513403
1557.270407,371.4585917200946
1537.212767,453.15015017150256
1517.65668,523.9669379049504
1498.5842089999999,579.5048518790518
1479.978265,637.8135436640837
1461.822555,679.8856182209485
1444.101535,715.7119621858692
1426.800368,747.0437683661143
1409.904887,771.9859718827911
1393.401553,796.9423415755892
1377.2774220000001,815.9470550886489
1361.520115,838.7302546905503
1346.117782,859.8874323905752
1331.059081,884.5680477658376
1316.3331449999998,908.2091366593152
1301.92956,930.7328725784488
1287.838342,953.2712815532049
1274.049912,980.9075323342688
1260.5550779999999,1001.8087272428082
1247.345017,1029.7397929220801
1234.4112519999999,1054.765097222419
1221.74564,1077.918360977072
1209.340352,1106.517908572793
1197.187859,1136.3721680488761
1185.28092,1168.8383604120447
1173.612564,1198.5792292015449
1162.1760800000002,1232.2116469057885
1150.9650060000001,1257.2507354435925
1139.973115,1291.0778017814066
1129.194406,1321.9436158115093
1118.623093,1349.0769168460602
1108.253594,1377.2738776661836
1098.0805269999998,1416.0191871307586
1088.098695,1436.210218017031
1078.303081,1474.8520971110456
1068.688841,1507.181092632028
1059.251295,1555.8305570419132
1049.9859199999999,1603.3260830594882
1040.8883449999998,1673.2949792597158
1031.9543429999999,1750.9363273669535
1023.1798259999999,1842.8780459724835
1014.5608390000001,1947.8998825947456
1006.0935529999999,2051.2888017161745
997.774265,2173.331832854398
989.5993858999999,2294.2727651260616
981.5654412999999,2427.562661054913
973.6690651,2533.0306261025194
965.9069952,2659.488395383741
958.2760697000001,2759.8259674446253
950.7732231000001,2847.01133469633
943.3954827,2925.9735760205317
936.1399648,2996.788648266939
929.0038716,3044.9590379780834
921.9844879000001,3097.3845804614916
915.0791782,3103.955196771184
908.2853836000002,3154.673948570261
901.6006193,3202.0374093366713
895.0224714,3267.0957042547193
888.548595,3305.353234928981
882.1767113,3389.6219310452643
875.9046055,3518.9603378025604
869.7301242999998,3709.627481531469
863.6511742999999,3892.269000612641
857.6657193,4226.748532934748
851.7717787,4567.441070079786
845.9674256000001,7740.580205083059
840.2507849,13647.421196283352
834.6200316000001,22353.049421423075
829.0733892000001,33955.63255595753
823.6091279,48230.11719129093
818.2255633999999,65444.94758070525
812.9210552000001,85358.99288154724
807.694005,108043.15618083149
802.5428559,128216.72508448485
797.4660904,146215.3395436677
792.4622299,162044.8532290148
787.5298327,175389.74477349292
782.6674933999999,186689.6448825636
777.8738417999999,195800.08034217925
773.1475413,203337.1043286866
768.4872882999999,208935.85431468987
763.8918112000001,215121.26047377102
759.3598692,222297.12106590622
754.8902515999999,229853.0700347052
750.4817767999999,238266.90302267985
746.1332914,247188.18627893762
741.8436694000001,255917.33993835512
737.6118116,264783.5962913255
733.4366444,273444.2182131618
729.3171195,281595.7664996591
725.2522127999999,289766.20399177226
721.2409241,297575.0630509117
717.282276,306445.5795886878
713.3753136,316454.82407535537
709.5191037000001,329131.48561658524
705.7127343,345547.4819573154
701.9553139,366486.7741694583
698.2459709,393229.6261594104
694.5838534,426804.1493636953
690.9681281000001,466785.27641264
687.3979803,512874.0539940759
683.8726131,564785.2260797388
680.3912472999999,620200.439867161
676.9531202000001,678010.5095479835
673.557486,734294.1610832977
670.2036149,786956.308209819
666.8907926,832185.3550126788
663.6183202999999,867562.6268204781
660.3855139,889852.2024454375
657.1917038,897097.2074202405
654.0362346,889066.3327400977
650.9184646000001,865862.0619557934
647.8377654,829740.459706955
644.7935217999999,782746.0267923244
641.7851312999999,729698.0191401744
638.8120038,674250.3631636206
635.8735614,620482.0172318955
632.9692378999999,571825.327390341
630.0984786,531602.7626438478
627.2607402000001,500947.2895119513
624.4554901,480782.1132037401
621.6822068,470406.297695751
618.940379,470045.8805616492
616.2295054,477832.9512921339
613.549095,493158.21802476404
610.8986664,514553.19941406907
608.2777476,540909.1552060207
605.6858758999999,570854.9247402535
603.1225977000001,603119.5089825253
600.5874682,636498.7161218915
598.0800512,669601.5001019964
595.5999188999999,701261.5874364971
593.1466518,730405.3028604675
590.7198384999999,756014.2238264937
588.3190752,777613.8836039236
585.943966,794993.8697076838
583.5941226,808762.0391389773
581.2691637,819963.5781844109
578.9687155,830761.5633689789
576.692411,844382.1142875856
574.4398902,864376.4757536172
572.2107997,895294.9055627694
570.0047927,943166.218700272
567.8215287,1012023.4750654777
565.6606737000001,1106544.7220754707
563.5218996,1228936.1840119744
561.4048845,1380143.1775335723
559.3093121,1558582.8495879942
557.2348721,1762047.6973468866
555.1812597,1988260.678414253
553.1481756000001,2235776.400271256
551.1353259,2506758.323119546
549.1424218999999,2808367.0746218124
547.1691801,3132130.384759192
545.2153222000001,3471904.9043384525
543.2805745000001,3822750.8663717294
541.3646685,4179479.293525217
539.46734,4535111.127357112
537.5883299,4877247.459621819
535.7273833,5187804.73612063
533.8842498,5442858.000002674
532.0586836,5646755.724068443
530.2504428000001,5801926.049130727
528.45929,5914505.385670497
526.6849915,5987496.502862062
524.927318,6026840.724172868
523.186044,6041381.499027591
521.4609475999999,6041621.551937201
519.7518110000001,6041637.15387846
518.0584200000001,6041112.767674204
516.3805639,6041515.483039384
514.7180356,6041732.198233913
513.0706316000001,6041309.552503515
511.43815149999995,6041003.962848228
509.82039860000003,6041086.897031134
508.2171791999999,6041518.543223288
506.628303,6041365.017106084
505.05358269999994,6041539.5073930025
503.4928341,6041767.078195755
501.9458762,6041677.450080547
500.41253059999997,6041700.727765652
498.8926222,6041401.673908391
497.3859785,6041363.45477691
495.89242989999997,6041278.070442872
494.4118094,6041723.978451634
492.943953,6041459.947884898
491.488699,6041266.822039254
490.04588839999997,6040994.21246931
488.6153648,6041338.7155775735
487.19697429999997,6041488.166965929
485.7905654,6025351.637293186
484.39598889999996,5980588.192090423
483.01309800000007,5898330.181955977
481.64174840000004,5774411.887272029
480.28179789999996,5606023.670847902
478.93310639999993,5394514.338847146
477.59553619999997,5141161.489527544
476.2689517,4846335.208171054
474.9532192,4538597.798704697
473.6482074,4239696.50627906
472.35378679999997,3960695.5397549365
471.06982989999995,3704010.289207043
469.79621110000005,3468165.652901948
468.53280700000005,3248777.390508089
467.2794956999999,3040842.794523392
466.0361575,2842643.47497001
464.80267410000005,2641838.078714987
463.5789295,2434522.793243408
462.364809,2222590.11357303
461.1601998,2014487.9728593463
459.9649909,1817938.9521458268
458.7790727,1640670.174401757
457.6023374,1488362.5429957646
456.4346788,1363844.0603637872
455.2759921,1266259.228052571
454.12617439999997,1192643.1924739752
452.9851239,1137862.412722921
451.85274060000006,1096674.9952531552
450.7289258,1064698.254132595
449.6135822,1038500.8621412762
448.5066141,1016502.7028952119
447.407927,998012.0889279855
446.317428,983866.2352669428
445.23502520000005,974541.3000046536
444.1606283,970992.5069279078
443.0941482,973696.336834404
442.03549699999996,982941.3485865358
440.9845882,997956.8295181156
439.9413364,1017331.5459282905
438.9056575,1038729.4488328459
437.87746860000004,1059363.8221594873
436.85668780000003,1075929.2080671554
435.8432345,1085857.106436502
434.83702930000004,1086973.462332517
433.83799369999997,1078652.4674613688
432.84605039999997,1061512.8096757496
431.8611232,1037504.1891971371
430.8831369,1008966.3041259686
429.9120175,978412.8036153277
428.94769169999995,947683.9010456679
427.9900874,918196.2308930564
427.03913370000004,890735.5631982569
426.0947602,865153.5338962956
425.1568978,841182.6767013774
424.22547829999996,818141.1848621451
423.3004343,795519.9056005944
422.3816994,772962.7351677925
421.4692081,750338.8531493795
420.56289569999996,728234.7830111438
419.66269850000003,707008.2216481994
418.7685535,687051.7698629607
417.8803987,668315.1821656805
416.9981727,650869.2097701178
416.12181519999996,634565.9697564809
415.25126639999996,619135.1964967756
414.38646760000006,604335.8851332174
413.5273605,590200.0300929232
412.673888,576322.5156802716
411.8259934,562850.2642136939
410.9836208,549608.4130748379
410.14671519999996,536532.9122627329
409.3152221,523732.1439210512
408.48908789999996,511042.5524723618
407.66825960000006,498636.43508683227
406.8526847,486614.5396519776
406.0423117,474902.40577112546
405.2370896,463626.7336950206
404.43696800000004,452884.5739575198
403.64189730000004,442744.6331494546
402.8518283,433090.70805609523
402.0667126,424040.89697755495
401.28650239999996,415402.06290618295
400.5111505,407159.9298648302
399.7406101,394691.9569348725
398.9748353,378001.27142556256
398.2137806,357104.5914967037
397.457401,332108.75119015697
396.7056521,303117.1436753093
395.9584903,270141.96462769463
395.2158722,233344.9585194052
394.4777551,193090.31737311892
393.7440968,158226.4347220771
393.0148555,128675.67099734233
392.2899901,104347.07373488818
391.56946,85138.75338257957
390.853225,70867.39664282367
390.1412452,61313.20535254844
389.43348169999996,56309.68788308088
388.7298955,55557.379019053566
388.03044839999995,54594.207487212116
387.3351027,53343.70452325557
386.6438209,51805.07071000451
385.95656610000003,49914.706351086585
385.2733019,47744.95071391692
384.5939922,45357.450889928135
383.9186014,42820.51710192365
383.2470943,40220.74943977541
382.5794362,37702.20659454918
381.9155926,35290.439136027875
381.2555296,33074.56983029957
380.59921360000004,31116.703735983734
379.9466115,29450.73683494449
379.29769039999996,28053.378697616205
378.652418,26938.254297791256
378.0107622,26064.6893898449
377.37269130000004,25412.22765662044
376.73817410000004,24919.702549736838
376.1071796,24573.51685532006
375.47967719999997,24314.98047828517
374.8556368,24110.80366743305
374.2350283,23935.098748665936
373.6178223,23757.60786258232
373.0039896,23566.86563771262
372.3935012,23353.023143862792
371.78632860000005,23101.989770665998
371.1824436,22818.057729158187
370.5818182,22519.165870094897
369.98442489999996,22192.865805892638
369.39023629999997,21849.551040447168
368.7992255,21486.138450062143
368.2113658,21111.879440683508
367.6266307,20720.370267901693
367.0449943,20301.060588778226
366.4664305,19835.7330915782
365.89091410000003,19314.890719612526
365.3184196,18732.506341247263
364.7489221,18069.04137097879
364.18239689999996,17312.272903592377
363.61881960000005,16464.116856573783
363.058166,15524.204110703386
362.50041219999997,14508.764843946985
361.94553460000003,13424.887679463558
361.3935098,12296.319347750117
360.8443147,11143.505122000779
360.29792630000003,10023.256777908353
359.754322,8914.365088068493
359.2134795,7877.3862120669155
358.6753765,6906.648291972547
358.1399912,6026.245088459002
357.6073018,5258.396031884509
357.077287,4574.975706098991
356.5499253,3998.6984397917417
356.025196,3494.2066801187034
355.50307799999996,3087.0019365564226
354.983551,2744.626904794112
354.4665945,2468.859443982406
353.95218839999995,2247.759774778388
353.4403127,2061.685138095935
352.9309478,1909.3838205913507
352.42407410000004,1782.3526440601606
351.9196722,1678.689057400193
351.4177232,1582.7651767840466
350.91820789999997,1512.663444758555
350.4211078,1440.6704612206765
349.9264043,1383.153474150202
349.434079,1324.287623178512
348.9441137,1276.3754574472996
348.45649060000005,1229.8800773119835
347.97119169999996,1179.001722747321
347.48819960000003,1138.0562209205202
347.0074967,1090.8882663370593
346.5290657,1058.8551974608376
346.0528897,1019.410435055477
345.5789517,988.251517214788
345.1072349,950.9650806013133
344.6377228,919.0251363368207
344.17039889999995,886.7668011254067
343.70524710000007,864.7576518756297
343.24225110000003,829.3829744947274
342.7813952,797.6016779470193
342.32266339999995,768.5390835890151
341.8660403,739.3042801275027
341.4115102,704.2491208119066
340.959058,676.3139550321907
340.5086685,648.8143312084318
340.06032660000005,615.2150450224103
339.6140175,580.0162317286141
339.1697264,551.3287311186127
338.7274388,526.2951075694687
338.28714019999995,496.4287374265232
337.8488164,470.1985070828828
337.41245310000005,453.84438461205343
336.9780363,431.4246753747319
336.5455522,409.2309444191452
336.114987,386.9715588280234
335.686327,369.05088308748253
335.2595588,341.9388706527931
334.834669,326.36762615804736
334.4116443,304.25744065131875
333.9904716,283.00059409139334
333.57113799999996,266.8943022942592
333.1536305,245.81173409845948
332.73793639999997,232.1371120054956
332.32404310000004,215.3904016599835
331.91193799999996,206.79687432690815
331.5016088,193.31290997506488
331.0930432,192.7577121441296
330.6862289,180.48152813469252
330.281154,173.94809598423
329.8778065,169.57205961249193
329.47617460000004,159.68190280847412
329.07624649999997,158.34389673395953
328.6780106,148.69895891816816
328.2814555,134.10650152381442
327.88656960000003,132.8939085674039
327.4933418,122.39756123442108
327.1017607,115.71708326747464
326.7118154,112.10818445820559
326.32349480000005,110.73743836143588
325.93678789999996,101.43617875602531
325.5516841,93.31357673035863
325.16817260000005,91.39545333250976
324.7862428,81.63573096007005
324.40588419999995,77.97060075262965
324.0270864,69.58632364043018
323.649839,68.23191084669644
323.2741319,66.04368150650079
322.8999548,61.97059722361061
322.5272977,51.53180340823685
322.1561508,48.157504256000394
321.786504,47.698163797105245
321.4183476,42.55874263248255
321.0516719,35.17693732587969
320.6864673,32.074573392566705
320.3227243,28.463123296716546
319.96043330000003,21.783857326886068
319.5995851,22.631714555725498
319.2401704,19.53614007352903
318.8821799,11.736260547485905
318.5256045,11.122992679525213
318.1704352,8.431103623616108
317.8166631,9.22641563121984
317.4642791,1.1483441801674212
317.1132746,-0.3873977364862325
316.76364069999994,-2.9179947980677725
316.4153688,0.5400831742137907
316.06845039999996,0.7116772480881258
315.72287689999996,3.1619578107324373
315.37863980000003,-1.4667672927325432
315.0357308,-6.664509456923463
314.6941415,4.113589407607764
314.3538639,-1.741565959835344
314.0148896,-1.2252624779253931
313.6772106,-0.6840286307463521
313.3408189,0.4506792231914988
313.00570639999995,0.2910704289808649
312.67186549999997,-0.8723790793174939
312.33928810000003,-1.809310638244318
312.0079665,-0.033900078725291216
311.6778931,3.4274351777127707
311.34906010000003,-1.6161733110644647
311.0214601,2.3015060012791766
310.6950856,-1.373147098938863
310.369929,0.014129594991780984
310.04598300000004,1.8245468287422053
309.7232403,-0.5535981324705237
309.4016935,-0.06902951753698246
309.0813356,0.4489197613741474
308.7621594,0.5568729737997102
308.4441577,-0.11138038599532242
308.1273236,-0.14984380413715126
307.8116501,1.3907805450048585
307.49713019999996,-2.764673883501177
307.18375710000004,-2.193455057929615
306.871524,0.5251344159234069
306.5604242,-1.7924672759446392
306.2504509,-1.76167234045278
