wave,flux
1817.164934,6.853129638472228
1790.1022050000001,3.4746652263832782
1763.812741,-10.830420274521408
1738.2646949999998,7.572298542319668
1713.427949,342.72144061450354
1689.273995,1064.1556367121648
1665.7758310000002,2164.5900444488398
1642.907862,3623.557361302558
1620.64581,5462.682186243776
1598.9666300000001,7677.949751189173
1577.8484310000001,10252.528856218283
1557.270407,13184.44577409636
1537.212767,15903.704733026952
1517.65668,18289.05194130146
1498.5842089999999,20400.697249960915
1479.978265,22176.111640919058
1461.822555,23638.47950465096
1444.101535,24805.034421986707
1426.800368,25672.300738982984
1409.904887,26239.198003801357
1393.401553,26763.895182615048
1377.2774220000001,27281.624505295884
1361.520115,27804.392642649447
1346.117782,28327.157667954063
1331.059081,28864.663784613163
1316.3331449999998,29393.9750026295
1301.92956,29930.44388425766
1287.838342,30436.661940014023
1274.049912,30982.174316672208
1260.5550779999999,31543.887676507547
1247.345017,32070.619127172704
1234.4112519999999,32657.469796891237
1221.74564,33254.72590865442
1209.340352,33821.158443677836
1197.187859,34449.390333828465
1185.28092,35091.027955104844
1173.612564,35739.74799061803
1162.1760800000002,36380.89304690777
1150.9650060000001,37004.83810302292
1139.973115,37651.733469103376
1129.194406,38249.473246689886
1118.623093,38867.30983221535
1108.253594,39472.077462350586
1098.0805269999998,40121.17661676648
1088.098695,40711.2725716313
1078.303081,41455.897958348265
1068.688841,42396.031648115604
1059.251295,43546.31195674197
1049.9859199999999,45011.10087907483
1040.8883449999998,46860.83552896965
1031.9543429999999,49166.01363682775
1023.1798259999999,51940.53245160189
1014.5608390000001,55019.01795840522
1006.0935529999999,58562.333430930725
997.774265,62298.91585224772
989.5993858999999,66221.48860175376
981.5654412999999,70065.92845136633
973.6690651,73663.28943509195
965.9069952,77033.37738911058
958.2760697000001,79921.44960138711
950.7732231000001,82395.740521913
943.3954827,84392.82249845416
936.1399648,85703.93741715567
929.0038716,86664.22004337897
921.9844879000001,87211.7331576163
915.0791782,87602.693345151
908.2853836000002,87793.89173740121
901.6006193,88409.04636867654
895.0224714,89449.41166208465
888.548595,91251.26910512164
882.1767113,93906.69052569318
875.9046055,97455.72626993756
869.7301242999998,102525.49717583992
863.6511742999999,109119.5215567002
857.6657193,117589.81895421189
851.7717787,128730.73559385605
845.9674256000001,143219.2498896782
840.2507849,160863.57006247784
834.6200316000001,182373.5691857772
829.0733892000001,207386.97589284767
823.6091279,235987.11009884282
818.2255633999999,266029.46554770466
812.9210552000001,298800.91152038425
807.694005,331669.8139427371
802.5428559,362597.2559465452
797.4660904,393747.2044084773
792.4622299,425814.2978338159
787.5298327,461128.06845148717
782.6674933999999,499841.9321756533
777.8738417999999,549668.4221631257
773.1475413,614515.2091024183
768.4872882999999,698673.2113734279
763.8918112000001,806435.8103845434
759.3598692,935952.2563715866
754.8902515999999,1148236.2170323723
750.4817767999999,1433421.7922861394
746.1332914,1785966.6262544887
741.8436694000001,2198647.4049648317
737.6118116,2663172.427343017
733.4366444,3162755.927064306
729.3171195,3696911.5087682162
725.2522127999999,4258780.362773085
721.2409241,4737911.9466571035
717.282276,5129556.81159074
713.3753136,5450468.103976382
709.5191037000001,5696085.99090826
705.7127343,5871012.624874561
701.9553139,5984430.398697876
698.2459709,6042651.519373131
694.5838534,6040418.128894669
690.9681281000001,6041320.6998248035
687.3979803,6040395.931237738
683.8726131,6041652.997134964
680.3912472999999,6040792.572420318
676.9531202000001,6041364.164572606
673.557486,6041340.676641646
670.2036149,6040618.446832556
666.8907926,6041352.957299431
663.6183202999999,6042384.908195423
660.3855139,6040883.702504525
657.1917038,6040959.427084942
654.0362346,6043192.296851495
650.9184646000001,6040093.820017365
647.8377654,6040875.514124686
644.7935217999999,6041706.605008572
641.7851312999999,6039561.969927164
638.8120038,6041277.108371982
635.8735614,6041097.832200613
632.9692378999999,6041279.506686891
630.0984786,6041786.6060257675
627.2607402000001,6041966.961961315
624.4554901,6040110.165329808
621.6822068,6042772.166499359
618.940379,6041190.254990827
616.2295054,6041196.257930882
613.549095,6041560.689817517
610.8986664,6041689.658656855
608.2777476,6041611.756725652
605.6858758999999,6041250.639474983
603.1225977000001,6041225.385392812
600.5874682,6041394.939981435
598.0800512,6041572.6575786425
595.5999188999999,6041815.343349122
593.1466518,6041504.82038222
590.7198384999999,6041285.491639448
588.3190752,6041502.053488882
585.943966,6041029.8744097
583.5941226,6040929.16968648
581.2691637,6041731.3648134675
578.9687155,6041036.795264464
576.692411,6041457.701332249
574.4398902,6041124.897923071
572.2107997,6041445.513840339
570.0047927,6041023.646336783
567.8215287,6041516.208779815
565.6606737000001,6041745.941808045
563.5218996,6041356.221237475
561.4048845,6041351.551002213
559.3093121,6040996.210978737
557.2348721,6041401.450155172
555.1812597,6041582.620466414
553.1481756000001,6041786.211678153
551.1353259,6041271.118713415
549.1424218999999,6041359.067545196
547.1691801,6041072.543640659
545.2153222000001,6041625.497447208
543.2805745000001,6041783.310942627
541.3646685,6041370.138798296
539.46734,6041068.075170494
537.5883299,6041748.357039291
535.7273833,6041168.640891061
533.8842498,6041100.416728113
532.0586836,6041271.960511492
530.2504428000001,6041292.9816811485
528.45929,6041381.437494682
526.6849915,6041140.926513038
524.927318,6041451.306838126
523.186044,6041382.768407195
521.4609475999999,6041450.576248728
519.7518110000001,6041527.749264931
518.0584200000001,6041706.987820177
516.3805639,6041696.649489017
514.7180356,6041588.464951344
513.0706316000001,6041574.08290195
511.43815149999995,6041396.079297659
509.82039860000003,6041509.751196609
508.2171791999999,6041457.945633655
506.628303,6041454.498467668
505.05358269999994,6041468.04918666
503.4928341,6041225.244962539
501.9458762,6041376.561530665
500.41253059999997,6041154.583494563
498.8926222,6041353.014059152
497.3859785,6041319.964858767
495.89242989999997,6041919.725262479
494.4118094,6041111.309183617
492.943953,6041396.091430665
491.488699,6041668.796229033
490.04588839999997,6041420.100544852
488.6153648,6041072.539913488
487.19697429999997,6041447.517343148
485.7905654,6041615.839140062
484.39598889999996,6041174.553846704
483.01309800000007,6041252.054905162
481.64174840000004,6041565.625233972
480.28179789999996,6041310.0426088665
478.93310639999993,6041651.279334905
477.59553619999997,6041109.195073858
476.2689517,6041534.417096749
474.9532192,6041741.825895641
473.6482074,6041547.708231553
472.35378679999997,6041500.467233519
471.06982989999995,6040916.428308522
469.79621110000005,6041712.594947103
468.53280700000005,6041346.985460763
467.2794956999999,6041653.5604052
466.0361575,6041523.349482468
464.80267410000005,6041854.018494778
463.5789295,6041591.77778992
462.364809,6041904.424729335
461.1601998,6041218.571539379
459.9649909,6041328.224792432
458.7790727,6041445.933185824
457.6023374,6041561.009462275
456.4346788,6041270.841021201
455.2759921,6041472.759297525
454.12617439999997,6041418.3442284325
452.9851239,6041408.5743039185
451.85274060000006,6041908.302426184
450.7289258,6041185.569334454
449.6135822,6041746.188962768
448.5066141,6041368.893938253
447.407927,6041016.263214163
446.317428,6041382.995782865
445.23502520000005,6041399.073568119
444.1606283,6041091.771633303
443.0941482,6041182.470091062
442.03549699999996,6041466.290500088
440.9845882,6041217.040824182
439.9413364,6041374.864432966
438.9056575,6041568.23557491
437.87746860000004,6041244.232119089
436.85668780000003,6041503.071993499
435.8432345,6041371.717174943
434.83702930000004,6041026.889249005
433.83799369999997,6041073.42020929
432.84605039999997,6041004.306797068
431.8611232,6041065.063615698
430.8831369,6041198.560817095
429.9120175,6041613.889789557
428.94769169999995,6041111.774177176
427.9900874,6040846.317799227
427.03913370000004,6041243.358223095
426.0947602,6041383.362178988
425.1568978,6041216.03574268
424.22547829999996,6041425.147989263
423.3004343,6041436.882584105
422.3816994,6041328.63019424
421.4692081,6040886.80871228
420.56289569999996,6041021.858197548
419.66269850000003,6041573.811712055
418.7685535,6041196.246813521
417.8803987,6041392.020537428
416.9981727,6041333.952654487
416.12181519999996,6041356.685175298
415.25126639999996,6041449.343900039
414.38646760000006,6041174.711765681
413.5273605,6041113.310844831
412.673888,6041220.361535055
411.8259934,6041182.21710639
410.9836208,6040927.584544684
410.14671519999996,6041463.954634436
409.3152221,6041184.801592758
408.48908789999996,6040966.104361477
407.66825960000006,6041833.304765763
406.8526847,6041460.336256593
406.0423117,6041422.012954751
405.2370896,6041226.785848348
404.43696800000004,6041397.513467733
403.64189730000004,6041558.4471935
402.8518283,6041114.890528315
402.0667126,6041722.291818749
401.28650239999996,6041630.756750243
400.5111505,6041602.990785153
399.7406101,6041144.488656451
398.9748353,6041086.350251013
398.2137806,6041828.768589687
397.457401,6041576.684499234
396.7056521,6041133.368830193
395.9584903,6041025.837509504
395.2158722,6040931.142351982
394.4777551,6041719.540557187
393.7440968,6040835.467014861
393.0148555,6041373.328107293
392.2899901,6041498.144196927
391.56946,6041558.869094042
390.853225,6041131.892293054
390.1412452,6041596.72103316
389.43348169999996,6042036.8573245285
388.7298955,6041530.389950639
388.03044839999995,6041152.130061436
387.3351027,6041360.709461536
386.6438209,5947863.66277332
385.95656610000003,5759608.416905425
385.2733019,5479345.6600374365
384.5939922,5105467.2123864
383.9186014,4639098.881062867
383.2470943,4080935.3022223837
382.5794362,3431306.225413938
381.9155926,2690515.0902461186
381.2555296,2043062.130614197
380.59921360000004,1488949.8954208654
379.9466115,1028193.171131816
379.29769039999996,659470.4931735896
378.652418,384177.1612195525
378.0107622,200298.81970074095
377.37269130000004,108568.2421021981
376.73817410000004,107323.06001755958
376.1071796,107289.59694891091
375.47967719999997,107740.7250148076
374.8556368,108277.98816642168
374.2350283,108374.04988195829
373.6178223,108184.98796675086
373.0039896,107868.4708368835
372.3935012,106470.64684667252
371.78632860000005,105101.48979473485
371.1824436,102797.66724324923
370.5818182,100390.02509861818
369.98442489999996,97644.85081663547
369.39023629999997,94864.41269979707
368.7992255,92021.41788722812
368.2113658,89307.55576761097
367.6266307,86718.87140024867
367.0449943,84237.74284006258
366.4664305,81855.2120172659
365.89091410000003,79486.62293405509
365.3184196,77023.41422323223
364.7489221,74354.06382253037
364.18239689999996,71425.60902163372
363.61881960000005,68140.79111437635
363.058166,64485.10625667624
362.50041219999997,60481.70749093887
361.94553460000003,56157.51374506337
361.3935098,51588.37374378996
360.8443147,46897.66324066894
360.29792630000003,42234.54411315223
359.754322,37643.70310060029
359.2134795,33284.85831244252
358.6753765,29233.855191877985
358.1399912,25537.71521884424
357.6073018,22252.694607830763
357.077287,19391.971649839517
356.5499253,16935.344473741643
356.025196,14865.936586678508
355.50307799999996,13133.917698533582
354.983551,11712.011479887698
354.4665945,10555.199481434887
353.95218839999995,9612.9388807621
353.4403127,8841.049217516673
352.9309478,8209.729507941433
352.42407410000004,7696.933187709453
351.9196722,7269.428780028513
351.4177232,6906.498984180877
350.91820789999997,6594.932640166824
350.4211078,6307.003709895144
349.9264043,6054.490378496671
349.434079,5817.45963949032
348.9441137,5590.565786948182
348.45649060000005,5379.912539495546
347.97119169999996,5177.761778591199
347.48819960000003,4972.703614745539
347.0074967,4793.175740532241
346.5290657,4625.453204762724
346.0528897,4460.142832893622
345.5789517,4308.852788987736
345.1072349,4169.051080070462
344.6377228,4036.9289878674736
344.17039889999995,3909.238934226669
343.70524710000007,3785.670515753197
343.24225110000003,3666.255164260857
342.7813952,3538.2289198867834
342.32266339999995,3402.683404885023
341.8660403,3275.7244222491713
341.4115102,3137.7092751651585
340.959058,3001.36231526056
340.5086685,2861.522438560913
340.06032660000005,2712.337215496818
339.6140175,2571.3680374483083
339.1697264,2445.8476797740304
338.7274388,2322.428021414304
338.28714019999995,2214.76748939285
337.8488164,2110.0909183279127
337.41245310000005,2013.3861059650628
336.9780363,1923.3999893753485
336.5455522,1835.0191273445155
336.114987,1740.9597533931696
335.686327,1645.4473156344566
335.2595588,1547.5842133010985
334.834669,1438.4464820566916
334.4116443,1335.133684653492
333.9904716,1231.5245822577929
333.57113799999996,1129.6762700553975
333.1536305,1045.3007998254236
332.73793639999997,976.2993720657364
332.32404310000004,906.8039321684703
331.91193799999996,854.9410592263118
331.5016088,810.9931411383172
331.0930432,780.4310637553859
330.6862289,748.9272707071242
330.281154,723.6666547285588
329.8778065,694.9662650947117
329.47617460000004,676.1855956903225
329.07624649999997,657.6940180380961
328.6780106,628.2759756546801
328.2814555,602.4064594072806
327.88656960000003,575.6871458005412
327.4933418,555.7046922930731
327.1017607,524.4779993667212
326.7118154,496.9116499499141
326.32349480000005,464.29732064679985
325.93678789999996,432.4022110283055
325.5516841,408.76769503149177
325.16817260000005,368.5834571324744
324.7862428,349.5991328817853
324.40588419999995,317.7546130428348
324.0270864,297.9966492457569
323.649839,271.68060822983847
323.2741319,249.47737564598185
322.8999548,232.5361465304154
322.5272977,218.72885643398564
322.1561508,199.0850276596029
321.786504,185.93680392935715
321.4183476,169.95002915768524
321.0516719,158.41054260212616
320.6864673,137.97760870792456
320.3227243,117.59220228408552
319.96043330000003,103.09024996941064
319.5995851,84.7923404945199
319.2401704,71.60132116964591
318.8821799,59.7615705945361
318.5256045,46.00521732102784
318.1704352,37.300960206565335
317.8166631,27.24074597377201
317.4642791,15.258041958843975
317.1132746,11.080468826802996
316.76364069999994,4.669405289976423
316.4153688,4.913640444086054
316.06845039999996,1.0933429043476235
315.72287689999996,1.2842949286101344
315.37863980000003,3.2080990478032634
315.0357308,-1.8233408206467483
314.6941415,7.259314078232223
314.3538639,0.3870394907901806
314.0148896,4.372387489692583
313.6772106,6.509942554557619
313.3408189,0.8294006373346454
313.00570639999995,3.0072830937516155
312.67186549999997,2.1226814690758253
312.33928810000003,2.829181084938362
312.0079665,-1.5200749348499
311.6778931,-1.9447332081313058
311.34906010000003,4.503811123728848
311.0214601,1.1822085468395684
310.6950856,-1.4399122546580587
310.369929,0.7891612696731987
310.04598300000004,0.10390583911415842
309.7232403,-1.5435263534358519
309.4016935,1.1375522326309522
309.0813356,-3.912080351339901
308.7621594,2.2180030884980706
308.4441577,3.159781512353685
308.1273236,2.0906763305168696
307.8116501,3.2321830450662974
307.49713019999996,1.0663705033251325
307.18375710000004,1.6694299130158976
306.871524,2.009068240668713
306.5604242,-0.4454668534411561
306.2504509,-0.6379533370241036
