wave,flux
1817.164934,13.268307107132602
1790.1022050000001,11.171792580581577
1763.812741,32.82682873286344
1738.2646949999998,88.33713698802704
1713.427949,252.0060338163882
1689.273995,818.6056600561369
1665.7758310000002,2111.857603234985
1642.907862,4268.129977813658
1620.64581,7834.530487802848
1598.9666300000001,12867.868638020029
1577.8484310000001,19891.00497079436
1557.270407,28792.5995940766
1537.212767,39851.30411024129
1517.65668,52770.506276525244
1498.5842089999999,67268.56961648325
1479.978265,82714.25492767835
1461.822555,98668.90548662648
1444.101535,114799.27555592913
1426.800368,130800.37097071712
1409.904887,146319.36878972204
1393.401553,161181.4526072323
1377.2774220000001,175047.69231782912
1361.520115,188639.34652023687
1346.117782,201767.20408108024
1331.059081,214485.87089366504
1316.3331449999998,227490.60628119102
1301.92956,240363.58011730388
1287.838342,253818.07222847137
1274.049912,267211.4111920992
1260.5550779999999,280843.26966809947
1247.345017,294396.8248810189
1234.4112519999999,307908.9752603347
1221.74564,321092.13162520685
1209.340352,334093.25372177
1197.187859,347162.151960299
1185.28092,359906.11260076397
1173.612564,372640.0090406568
1162.1760800000002,385410.575995267
1150.9650060000001,399134.81091157673
1139.973115,411930.1984629992
1129.194406,425798.65330244007
1118.623093,439799.42121739185
1108.253594,453891.0158696229
1098.0805269999998,468297.0284613161
1088.098695,482587.60924991773
1078.303081,496835.21956352744
1068.688841,511861.5026493508
1059.251295,527000.9557668729
1049.9859199999999,542363.9228066839
1040.8883449999998,558722.1076303364
1031.9543429999999,576887.6289184882
1023.1798259999999,596492.1490888097
1014.5608390000001,617759.9451260548
1006.0935529999999,642091.2817307953
997.774265,667580.5213129565
989.5993858999999,695248.8316979529
981.5654412999999,726490.8379288943
973.6690651,758557.4697487918
965.9069952,793276.1771799101
958.2760697000001,828361.7557914135
950.7732231000001,865032.9038484362
943.3954827,900445.1463479217
936.1399648,935624.0119117036
929.0038716,970278.0153405174
921.9844879000001,1004630.8709602852
915.0791782,1036811.1970483952
908.2853836000002,1069411.8211339621
901.6006193,1100053.1356943035
895.0224714,1129206.4884894777
888.548595,1160919.7916431527
882.1767113,1191186.3791366266
875.9046055,1225587.485332823
869.7301242999998,1263044.6669534324
863.6511742999999,1305329.1735602606
857.6657193,1351527.6307034679
851.7717787,1404346.2669203621
845.9674256000001,1465660.0540267962
840.2507849,1536487.8946379046
834.6200316000001,1619401.1648762275
829.0733892000001,1714952.85850462
823.6091279,1822111.1523812427
818.2255633999999,1943842.893481048
812.9210552000001,2077820.046383401
807.694005,2226432.1109412247
802.5428559,2391827.20417854
797.4660904,2569909.085173928
792.4622299,2759413.058485584
787.5298327,2965692.2088373587
782.6674933999999,3188702.363694142
777.8738417999999,3434125.692822562
773.1475413,3701047.6738604656
768.4872882999999,3984082.5280202087
763.8918112000001,4271357.540242677
759.3598692,4564096.39865575
754.8902515999999,4854664.2801736565
750.4817767999999,5128618.906768145
746.1332914,5378918.158063224
741.8436694000001,5578922.023135958
737.6118116,5736354.796449252
733.4366444,5859718.754018685
729.3171195,5946628.646911299
725.2522127999999,6000987.441064405
721.2409241,6030848.59376401
717.282276,6040481.082210692
713.3753136,6042978.63253268
709.5191037000001,6040629.40656351
705.7127343,6043043.465767193
701.9553139,6040339.467621682
698.2459709,6041592.162489596
694.5838534,6039996.095262907
690.9681281000001,6041003.575487629
687.3979803,6041257.592209181
683.8726131,6040545.507261693
680.3912472999999,6041237.956123023
676.9531202000001,6041192.5434843525
673.557486,6041103.951261965
670.2036149,6040775.582683842
666.8907926,6040047.003465064
663.6183202999999,6038755.157501913
660.3855139,6042000.770400665
657.1917038,6040685.780491628
654.0362346,6042010.8460730575
650.9184646000001,6042073.302235252
647.8377654,6040832.01808671
644.7935217999999,6040280.708114304
641.7851312999999,6039861.382201158
638.8120038,6041315.69670828
635.8735614,6040267.297221012
632.9692378999999,6040956.3098231675
630.0984786,6042476.515556611
627.2607402000001,6041828.478437225
624.4554901,6040642.112602747
621.6822068,6040908.952870991
618.940379,6042049.28864585
616.2295054,6041498.072662137
613.549095,6041772.224478613
610.8986664,6041516.346575337
608.2777476,6041716.642802478
605.6858758999999,6041446.778347847
603.1225977000001,6041490.881840362
600.5874682,6041825.471477684
598.0800512,6040989.364812481
595.5999188999999,6041399.353172816
593.1466518,6041840.193133969
590.7198384999999,6041259.452964963
588.3190752,6041790.304079722
585.943966,6041171.8022801075
583.5941226,6041487.907647442
581.2691637,6041767.637684382
578.9687155,6041664.098291476
576.692411,6041272.8198748585
574.4398902,6041691.448059538
572.2107997,6041048.77078378
570.0047927,6041432.147782617
567.8215287,6041580.242736855
565.6606737000001,6041414.805586536
563.5218996,6041436.927357439
561.4048845,6041139.928370525
559.3093121,6040700.42849246
557.2348721,6041408.848587748
555.1812597,6041198.755298317
553.1481756000001,6041479.558267173
551.1353259,6041755.510263437
549.1424218999999,6040997.376665386
547.1691801,6041073.0097351475
545.2153222000001,6041458.44939448
543.2805745000001,6041145.422640072
541.3646685,6042115.406348428
539.46734,6041364.80113034
537.5883299,6041279.238636856
535.7273833,6041605.058512027
533.8842498,6041216.447772284
532.0586836,6041051.4722330235
530.2504428000001,6041437.029830496
528.45929,6041251.989919724
526.6849915,6041385.748077487
524.927318,6041158.530637273
523.186044,6041312.833733615
521.4609475999999,6041440.726141449
519.7518110000001,6041736.314212669
518.0584200000001,6041794.642781102
516.3805639,6041235.133081227
514.7180356,6041237.117442923
513.0706316000001,6041191.382570901
511.43815149999995,6040965.835243035
509.82039860000003,6041392.454128833
508.2171791999999,6041650.960876051
506.628303,6041584.279732336
505.05358269999994,6041373.796751811
503.4928341,6041496.43009771
501.9458762,6041988.1016888125
500.41253059999997,6041165.697182537
498.8926222,6041662.05765654
497.3859785,6041936.512070334
495.89242989999997,6041254.5953744175
494.4118094,6041318.007488544
492.943953,6041635.176660152
491.488699,6041427.2568148775
490.04588839999997,6041218.0351193575
488.6153648,6041063.79513383
487.19697429999997,6041697.788800825
485.7905654,6041610.30374717
484.39598889999996,6041390.695799918
483.01309800000007,6041576.596751032
481.64174840000004,6041382.681103002
480.28179789999996,6041396.65298681
478.93310639999993,6041615.885106255
477.59553619999997,6041753.521785835
476.2689517,6041404.471994001
474.9532192,6041582.789169404
473.6482074,6041157.821719286
472.35378679999997,6041453.35569221
471.06982989999995,6041662.35206069
469.79621110000005,6041510.884206037
468.53280700000005,6041641.971555145
467.2794956999999,6041716.709522235
466.0361575,6041069.74633399
464.80267410000005,6041447.543627623
463.5789295,6041084.162880664
462.364809,6041425.499593512
461.1601998,6041395.949818715
459.9649909,6041721.28999991
458.7790727,6041391.834604876
457.6023374,6041334.235364557
456.4346788,6041704.512528755
455.2759921,6041702.353733816
454.12617439999997,6041540.774433535
452.9851239,6041387.507501817
451.85274060000006,6041404.485303144
450.7289258,6041573.738595298
449.6135822,6041269.851205979
448.5066141,6041390.456452197
447.407927,6040988.010940714
446.317428,6041245.336088942
445.23502520000005,6041045.454627195
444.1606283,6041466.17935392
443.0941482,6041228.404820072
442.03549699999996,6041317.1902810475
440.9845882,6041291.371534765
439.9413364,6041219.79331211
438.9056575,6041543.223134236
437.87746860000004,6041226.016526422
436.85668780000003,6041361.593418823
435.8432345,6041272.154866102
434.83702930000004,6041495.680269062
433.83799369999997,6041216.44536102
432.84605039999997,6041191.43917508
431.8611232,6041235.030756144
430.8831369,6041897.890345697
429.9120175,6041106.5081330985
428.94769169999995,6041402.843173799
427.9900874,6041277.686544541
427.03913370000004,6041765.353342555
426.0947602,6041763.952294776
425.1568978,6041722.181665542
424.22547829999996,6041580.4585899925
423.3004343,6041297.664062271
422.3816994,6041296.423016827
421.4692081,6041078.391421265
420.56289569999996,6041622.935329231
419.66269850000003,6041084.888904583
418.7685535,6040970.514026264
417.8803987,6041043.616144477
416.9981727,6041372.681983734
416.12181519999996,6041228.522308554
415.25126639999996,6041607.967688577
414.38646760000006,6041413.837178866
413.5273605,6041717.38092736
412.673888,6041338.423278527
411.8259934,6041635.739711774
410.9836208,6041443.680091717
410.14671519999996,6041341.600837115
409.3152221,6041356.979271308
408.48908789999996,6041437.539024157
407.66825960000006,6041305.959846352
406.8526847,6041530.471087388
406.0423117,6041312.230911206
405.2370896,6041775.1906717615
404.43696800000004,6041327.715057304
403.64189730000004,6041071.347502635
402.8518283,6037198.727494289
402.0667126,6026302.052442454
401.28650239999996,6004068.146905827
400.5111505,5967466.138248316
399.7406101,5913160.256171508
398.9748353,5838547.342496169
398.2137806,5740863.726339257
397.457401,5616803.167591539
396.7056521,5471407.779556775
395.9584903,5310077.283385054
395.2158722,5136471.681854277
394.4777551,4956757.131835806
393.7440968,4774317.779436906
393.0148555,4593852.354622391
392.2899901,4418501.930187905
391.56946,4252832.046037813
390.853225,4096595.892614736
390.1412452,3948719.176928468
389.43348169999996,3810002.7931128633
388.7298955,3678425.008340385
388.03044839999995,3554370.601314175
387.3351027,3437388.911295006
386.6438209,3327025.012293485
385.95656610000003,3223348.7977976645
385.2733019,3125663.775104304
384.5939922,3034993.5387862325
383.9186014,2949922.483721302
383.2470943,2871542.4226421188
382.5794362,2799560.4092501933
381.9155926,2733236.8613162283
381.2555296,2673255.74657389
380.59921360000004,2619120.3760019247
379.9466115,2570375.489217184
379.29769039999996,2527226.3231685082
378.652418,2488977.87221598
378.0107622,2455353.143804476
377.37269130000004,2426458.8315589223
376.73817410000004,2401405.6660962407
376.1071796,2380061.3721178547
375.47967719999997,2362362.8679650538
374.8556368,2347930.336678716
374.2350283,2336279.5365545717
373.6178223,2326977.259380337
373.0039896,2320252.3527126354
372.3935012,2314876.474368059
371.78632860000005,2311105.4430054585
371.1824436,2308765.1027898267
370.5818182,2307610.3684593947
369.98442489999996,2306497.278957591
369.39023629999997,2306098.7665472007
368.7992255,2305795.272610967
368.2113658,2305147.4511523317
367.6266307,2304078.877440516
367.0449943,2302511.739893901
366.4664305,2300266.5686216108
365.89091410000003,2297050.889216604
365.3184196,2292969.1237365413
364.7489221,2288015.4397506337
364.18239689999996,2282905.4973551976
363.61881960000005,2276434.180037253
363.058166,2269558.0695485743
362.50041219999997,2262296.08943872
361.94553460000003,2254168.142408955
361.3935098,2245842.085432436
360.8443147,2236874.120773844
360.29792630000003,2227266.1451257644
359.754322,2217242.244743349
359.2134795,2207086.363878481
358.6753765,2196112.5449846517
358.1399912,2185054.8406197117
357.6073018,2173506.47273426
357.077287,2161650.094108344
356.5499253,2149290.228634189
356.025196,2136893.0296596163
355.50307799999996,2123873.031526932
354.983551,2110356.636204304
354.4665945,2095947.8456312963
353.95218839999995,2080506.5293657763
353.4403127,2064351.747045468
352.9309478,2046800.7849483304
352.42407410000004,2027774.8893003957
351.9196722,2007145.636104128
351.4177232,1984644.6869875884
350.91820789999997,1959955.223982948
350.4211078,1932699.634019568
349.9264043,1902759.1625549027
349.434079,1869627.44949642
348.9441137,1833498.69538894
348.45649060000005,1794261.77849747
347.97119169999996,1750822.5646980454
347.48819960000003,1704650.632445983
347.0074967,1655600.941101439
346.5290657,1603962.0930257302
346.0528897,1550375.581770919
345.5789517,1495952.1888060418
345.1072349,1441415.0461250744
344.6377228,1387502.8552702498
344.17039889999995,1334861.3648964516
343.70524710000007,1284968.3061599885
343.24225110000003,1237593.7400593315
342.7813952,1193430.1317730788
342.32266339999995,1152602.7228673424
341.8660403,1115118.1530203815
341.4115102,1080297.37726808
340.959058,1048268.1518665558
340.5086685,1018246.490381652
340.06032660000005,989877.4450825973
339.6140175,962542.1685060788
339.1697264,935763.8793513732
338.7274388,908993.5268174495
338.28714019999995,882222.5579731964
337.8488164,854868.6804854402
337.41245310000005,827121.0870440188
336.9780363,798728.0987025128
336.5455522,769687.7912213376
336.114987,740259.7310850089
335.686327,710363.6649189164
335.2595588,680052.236557524
334.834669,649291.0269492064
334.4116443,618125.8264535725
333.9904716,586557.4268053939
333.57113799999996,554789.6746388101
333.1536305,522627.75917563227
332.73793639999997,490609.416749914
332.32404310000004,458285.40881017526
331.91193799999996,426168.9363493817
331.5016088,394053.7554194774
331.0930432,362586.53332601936
330.6862289,331790.3791295745
330.281154,302034.0695432214
329.8778065,273387.4663037677
329.47617460000004,246194.59352625755
329.07624649999997,220839.85165174797
328.6780106,197389.3069937684
328.2814555,175977.79418503394
327.88656960000003,156842.97239223216
327.4933418,139841.84640943367
327.1017607,125042.93834624154
326.7118154,112240.4628408961
326.32349480000005,101388.32444804796
325.93678789999996,92289.49932369457
325.5516841,84622.15748818206
325.16817260000005,78348.77388233849
324.7862428,73108.8622249013
324.40588419999995,68781.12315345157
324.0270864,65001.07091786612
323.649839,61899.12031730687
323.2741319,59202.700537679426
322.8999548,56750.390555282574
322.5272977,54518.58592782879
322.1561508,52504.7250654528
321.786504,50609.56753851852
321.4183476,48821.60506785433
321.0516719,47160.29354556309
320.6864673,45447.367059914635
320.3227243,43877.53180284832
319.96043330000003,42351.52089334423
319.5995851,40812.3772541214
319.2401704,39301.93508008235
318.8821799,37854.94719120089
318.5256045,36413.2358578917
318.1704352,35005.406781733356
317.8166631,33630.85195297248
317.4642791,32228.41286159747
317.1132746,30891.414744211543
316.76364069999994,29610.99566656263
316.4153688,28340.1110156352
316.06845039999996,27110.07038319782
315.72287689999996,25947.133664790395
315.37863980000003,24785.597362106288
315.0357308,23675.574185401758
314.6941415,22595.069061676208
314.3538639,21588.344912974993
314.0148896,20622.53077411448
313.6772106,19678.357632500294
313.3408189,18756.69092987644
313.00570639999995,17887.22100069998
312.67186549999997,17080.85328388478
312.33928810000003,16264.800873640188
312.0079665,15490.330488443315
311.6778931,14771.349482530923
311.34906010000003,14057.74319440916
311.0214601,13363.654074354432
310.6950856,12724.084457752131
310.369929,12069.85786242754
310.04598300000004,11460.87950122297
309.7232403,10858.535801233691
309.4016935,10282.382689456397
309.0813356,9730.399513544524
308.7621594,9191.724301978153
308.4441577,8682.12747968288
308.1273236,8206.044458883478
307.8116501,7746.873455958029
307.49713019999996,6399.867866152208
307.18375710000004,5189.268180181108
306.871524,4079.805911666175
306.5604242,3081.865848866169
306.2504509,2178.5893086223346
