wave,flux
1817.164934,0.3603925365228873
1790.1022050000001,-6.292511239981103
1763.812741,2.2924670510234213
1738.2646949999998,0.3975564227810984
1713.427949,9.806876530465617
1689.273995,19.556194041724755
1665.7758310000002,55.577428129525394
1642.907862,127.79529732398458
1620.64581,241.87647461413985
1598.9666300000001,390.81009801099435
1577.8484310000001,593.4365099862263
1557.270407,853.5950550134547
1537.212767,1167.792577635835
1517.65668,1531.732397203984
1498.5842089999999,1923.263081830385
1479.978265,2328.402682910339
1461.822555,2740.94654536887
1444.101535,3149.593544719338
1426.800368,3553.1548830522656
1409.904887,3938.9306533111762
1393.401553,4311.72218809493
1377.2774220000001,4648.8651225988015
1361.520115,4981.6283678619875
1346.117782,5312.501355735913
1331.059081,5654.201430033838
1316.3331449999998,5966.631923949736
1301.92956,6307.405780874808
1287.838342,6651.19951497495
1274.049912,6989.571097221729
1260.5550779999999,7347.825095379538
1247.345017,7688.019698251556
1234.4112519999999,8037.311512216775
1221.74564,8374.461599464734
1209.340352,8733.935872905735
1197.187859,9072.82939671932
1185.28092,9407.894552073882
1173.612564,9748.508581695489
1162.1760800000002,10096.867138556181
1150.9650060000001,10447.145192015969
1139.973115,10804.179404280805
1129.194406,11173.926866615828
1118.623093,11529.96955070558
1108.253594,11892.909610931709
1098.0805269999998,12257.599270363042
1088.098695,12627.918925808626
1078.303081,13017.371483139397
1068.688841,13394.291764271096
1059.251295,13785.26755729229
1049.9859199999999,14193.220204918009
1040.8883449999998,14647.555257700187
1031.9543429999999,15118.914918705419
1023.1798259999999,15630.44518137557
1014.5608390000001,16229.856306062638
1006.0935529999999,16886.592566074945
997.774265,17573.324931945528
989.5993858999999,18326.438871056624
981.5654412999999,19152.79161462943
973.6690651,19994.79615558306
965.9069952,20906.328911405
958.2760697000001,21809.310791723346
950.7732231000001,22726.541048324525
943.3954827,23658.578018400785
936.1399648,24534.81999657815
929.0038716,25369.14134782187
921.9844879000001,26233.817264191373
915.0791782,27039.79037396301
908.2853836000002,27809.817108466694
901.6006193,28539.368106346967
895.0224714,29305.231006967002
888.548595,30089.351134877463
882.1767113,30903.548527880284
875.9046055,31777.5591624788
869.7301242999998,32742.55596457392
863.6511742999999,33857.909471052
857.6657193,35102.06744575049
851.7717787,36592.334805694816
845.9674256000001,38253.427368601566
840.2507849,40235.47703596857
834.6200316000001,42499.821269729735
829.0733892000001,45048.46412335442
823.6091279,47979.45847124246
818.2255633999999,51398.04705896297
812.9210552000001,55052.07997272453
807.694005,59090.687204590045
802.5428559,63495.3965062107
797.4660904,68388.67053053563
792.4622299,73317.17956526914
787.5298327,78659.42655356963
782.6674933999999,84549.7943321639
777.8738417999999,91177.82823183529
773.1475413,98854.1381422425
768.4872882999999,107867.07885916404
763.8918112000001,118977.74287687973
759.3598692,132082.31285573222
754.8902515999999,148439.24087122595
750.4817767999999,167529.74587922826
746.1332914,189708.0684534238
741.8436694000001,215321.784405518
737.6118116,243625.51409665323
733.4366444,273378.26768287097
729.3171195,304802.9648464523
725.2522127999999,336563.0564631165
721.2409241,368951.3865964717
717.282276,402513.0747024056
713.3753136,437480.14086556743
709.5191037000001,476579.8450992046
705.7127343,522556.966053354
701.9553139,577902.0383703061
698.2459709,648526.9687414056
694.5838534,738546.7063421644
690.9681281000001,853031.5050030992
687.3979803,995296.7906210341
683.8726131,1168120.4675374306
680.3912472999999,1372955.0416541293
676.9531202000001,1609037.1855620802
673.557486,1871865.8986437945
670.2036149,2158489.6793186963
666.8907926,2457453.232002703
663.6183202999999,2762840.970076496
660.3855139,3062760.413955331
657.1917038,3348338.3742075465
654.0362346,3609212.2357111424
650.9184646000001,3837490.290408332
647.8377654,4027504.489850212
644.7935217999999,4176113.250986349
641.7851312999999,4280332.452054506
638.8120038,4343949.614742202
635.8735614,4370097.2651091665
632.9692378999999,4363169.626750499
630.0984786,4331538.050244556
627.2607402000001,4280286.254145028
624.4554901,4215856.4433048265
621.6822068,4143750.3369912435
618.940379,4069421.217992812
616.2295054,3994257.7346164575
613.549095,3921111.9053757438
610.8986664,3850444.0991450576
608.2777476,3781824.9463685537
605.6858758999999,3716165.335493134
603.1225977000001,3651151.037721375
600.5874682,3588427.577270701
598.0800512,3526527.0940749287
595.5999188999999,3465568.260448672
593.1466518,3406466.584150327
590.7198384999999,3348987.35582354
588.3190752,3293617.313914715
585.943966,3240688.330208512
583.5941226,3189397.4997030967
581.2691637,3140564.133784282
578.9687155,3091955.3519326393
576.692411,3044144.643037036
574.4398902,2995738.366756401
572.2107997,2946780.142773
570.0047927,2896189.867102878
567.8215287,2844732.5336165074
565.6606737000001,2792218.898816277
563.5218996,2739458.421890831
561.4048845,2686857.051722196
559.3093121,2635006.468615869
557.2348721,2584909.560889794
555.1812597,2536695.1165327933
553.1481756000001,2490937.180938348
551.1353259,2447857.55587879
549.1424218999999,2406770.3722828035
547.1691801,2367627.335764676
545.2153222000001,2330084.2089466453
543.2805745000001,2293011.3073765733
541.3646685,2256238.630238357
539.46734,2218789.0791705386
537.5883299,2180154.826213584
535.7273833,2140431.2868282357
533.8842498,2098633.123864919
532.0586836,2055096.6786248046
530.2504428000001,2009966.490718669
528.45929,1963826.1579102676
526.6849915,1916321.8856133546
524.927318,1868557.3456198762
523.186044,1821235.422021673
521.4609475999999,1774900.4406577328
519.7518110000001,1730313.4389809226
518.0584200000001,1687529.4359949618
516.3805639,1647355.803565217
514.7180356,1609646.2664906166
513.0706316000001,1574367.346155525
511.43815149999995,1541682.8742310102
509.82039860000003,1511502.8819198788
508.2171791999999,1483282.855923675
506.628303,1457427.7964036048
505.05358269999994,1433687.1598711011
503.4928341,1412197.9287779112
501.9458762,1392834.5728989784
500.41253059999997,1376053.0351024515
498.8926222,1361581.509204083
497.3859785,1349427.635548438
495.89242989999997,1339206.5193559253
494.4118094,1330389.873547235
492.943953,1322159.2328021636
491.488699,1313887.6317901209
490.04588839999997,1304469.9272542724
488.6153648,1293095.6752557212
487.19697429999997,1279115.3652864702
485.7905654,1262474.0668195589
484.39598889999996,1242892.2941182873
483.01309800000007,1220877.6885887051
481.64174840000004,1197408.083610107
480.28179789999996,1172973.7708817392
478.93310639999993,1148658.6943750314
477.59553619999997,1125371.6484037372
476.2689517,1103647.272676131
474.9532192,1084169.2541140465
473.6482074,1066615.6693865652
472.35378679999997,1050821.319939778
471.06982989999995,1036160.519778886
469.79621110000005,1021778.4719205679
468.53280700000005,1006871.6533742562
467.2794956999999,990663.181131058
466.0361575,972658.8203345956
464.80267410000005,952380.03318998
463.5789295,929872.7170710134
462.364809,905420.0787490678
461.1601998,879282.9340474618
459.9649909,851981.9575066792
458.7790727,824365.158215324
457.6023374,796912.0725458069
456.4346788,769954.9859496081
455.2759921,743988.2833077463
454.12617439999997,719279.0387575745
452.9851239,695899.9848317405
451.85274060000006,673768.3398541815
450.7289258,653002.9890861639
449.6135822,633428.5549334487
448.5066141,614963.4811335113
447.407927,597586.9305713194
446.317428,581270.0287181254
445.23502520000005,566061.216921206
444.1606283,551964.2491737666
443.0941482,538981.8435021907
442.03549699999996,527304.8259473718
440.9845882,516803.2282513328
439.9413364,507445.463576135
438.9056575,498965.3595774065
437.87746860000004,491088.69950459705
436.85668780000003,483535.49149221706
435.8432345,475826.92215567385
434.83702930000004,467771.1767951527
433.83799369999997,458806.66164377076
432.84605039999997,448826.4007011525
431.8611232,437663.8814740297
430.8831369,425313.6048357557
429.9120175,411934.3752381528
428.94769169999995,397785.96714674396
427.9900874,383237.96670804365
427.03913370000004,368653.6811439867
426.0947602,354408.83230101154
425.1568978,340782.1028513428
424.22547829999996,328158.0588976395
423.3004343,316680.55954551464
422.3816994,306401.2665188693
421.4692081,297278.6738813981
420.56289569999996,289343.13637794426
419.66269850000003,282388.15193402866
418.7685535,276323.6237506289
417.8803987,270863.9967222259
416.9981727,265952.44481353986
416.12181519999996,261288.5321055722
415.25126639999996,256824.43726412085
414.38646760000006,252346.7613496071
413.5273605,247795.7817360287
412.673888,243062.9061015005
411.8259934,238128.28866221945
410.9836208,232910.39661285825
410.14671519999996,227329.54367939392
409.3152221,221503.59055968374
408.48908789999996,215374.78162431996
407.66825960000006,208978.40951304606
406.8526847,202324.1182684168
406.0423117,195562.55859656
405.2370896,188713.90118619602
404.43696800000004,181871.9588957118
403.64189730000004,175125.45344815735
402.8518283,168541.038263355
402.0667126,162180.08820063274
401.28650239999996,156044.96566775945
400.5111505,150237.67999394785
399.7406101,144741.9336726896
398.9748353,139513.36198787528
398.2137806,134545.4853086725
397.457401,129818.0115525366
396.7056521,125271.616573241
395.9584903,120911.94354226155
395.2158722,116719.88547938052
394.4777551,112631.78014327938
393.7440968,108731.6408584208
393.0148555,104947.69716324516
392.2899901,101370.2038928942
391.56946,97958.72141612918
390.853225,94731.75192500904
390.1412452,91681.09683084727
389.43348169999996,88867.83991684523
388.7298955,86211.20473200112
388.03044839999995,83782.09466381966
387.3351027,81485.44830905423
386.6438209,79379.6438857671
385.95656610000003,77458.84460412995
385.2733019,75661.37698261939
384.5939922,74037.46295675517
383.9186014,72526.68128202883
383.2470943,71110.10833581156
382.5794362,69809.64080832161
381.9155926,68586.97753642188
381.2555296,67438.6230513246
380.59921360000004,66359.32283189926
379.9466115,65303.57903117037
379.29769039999996,64315.02374610022
378.652418,63391.84567945421
378.0107622,62529.044546267185
377.37269130000004,61740.35176798926
376.73817410000004,61000.92342035147
376.1071796,60376.09720318008
375.47967719999997,59817.6088412383
374.8556368,59372.611525885965
374.2350283,59009.850557803176
373.6178223,58767.87242694756
373.0039896,58626.25851211767
372.3935012,58603.977828847004
371.78632860000005,58685.14547503624
371.1824436,58907.7631349607
370.5818182,59252.344158425585
369.98442489999996,59731.50673194393
369.39023629999997,60361.062243945744
368.7992255,61107.008826435216
368.2113658,61992.349461078586
367.6266307,62960.54568144874
367.0449943,64030.971906989354
366.4664305,65162.53551977081
365.89091410000003,66325.15814371494
365.3184196,67482.41249315014
364.7489221,68641.65314759845
364.18239689999996,69729.58000991833
363.61881960000005,70756.68372583295
363.058166,71654.28885907345
362.50041219999997,72487.73868905018
361.94553460000003,73160.58800724044
361.3935098,73748.95189330558
360.8443147,74181.88438832016
360.29792630000003,74495.30920120371
359.754322,74680.33766247191
359.2134795,74734.3754066854
358.6753765,74674.30207735875
358.1399912,74511.91099804893
357.6073018,74253.47866672424
357.077287,73896.74695556719
356.5499253,73477.11371530751
356.025196,72994.75742063909
355.50307799999996,72464.40196788574
354.983551,71872.6234530616
354.4665945,71271.83502285558
353.95218839999995,70607.4697769157
353.4403127,69947.69279258625
352.9309478,69244.07537401668
352.42407410000004,68550.42623015249
351.9196722,67834.91218866508
351.4177232,67076.08068557484
350.91820789999997,66284.95015586067
350.4211078,65469.18174634399
349.9264043,64595.60628355201
349.434079,63697.01099764245
348.9441137,62716.76992020549
348.45649060000005,61733.62203864418
347.97119169999996,60692.2112512512
347.48819960000003,59607.6136986161
347.0074967,58463.27403296966
346.5290657,57355.930993368944
346.0528897,56206.0775645624
345.5789517,55073.981819128116
345.1072349,53958.53810081018
344.6377228,52831.858276766536
344.17039889999995,51718.9166219572
343.70524710000007,50596.260904516974
343.24225110000003,49460.607071340615
342.7813952,48274.205843209056
342.32266339999995,47049.017956070194
341.8660403,45746.1401372933
341.4115102,44413.65491404738
340.959058,42993.87247029395
340.5086685,41522.354916227436
340.06032660000005,40015.98534764951
339.6140175,38461.318130248685
339.1697264,36901.76448296459
338.7274388,35351.768090622696
338.28714019999995,33818.802961340545
337.8488164,32352.759315673637
337.41245310000005,30919.156364490696
336.9780363,29568.39352441003
336.5455522,28266.026244024502
336.114987,27021.17546683913
335.686327,25816.95643796397
335.2595588,24659.68610615562
334.834669,23512.81553385438
334.4116443,22377.646919973253
333.9904716,21233.45296836881
333.57113799999996,20082.2658030802
333.1536305,18936.84427964762
332.73793639999997,17738.75809310055
332.32404310000004,16559.064183001068
331.91193799999996,15349.780397791934
331.5016088,14167.785714410871
331.0930432,12987.403364414864
330.6862289,11846.983733869421
330.281154,10750.457343461503
329.8778065,9697.892100799276
329.47617460000004,8707.337354601483
329.07624649999997,7794.548758215519
328.6780106,6955.35121757173
328.2814555,6204.688134140566
327.88656960000003,5534.437390042386
327.4933418,4945.624363816237
327.1017607,4432.186098992039
326.7118154,3988.1334943241413
326.32349480000005,3616.508015361453
325.93678789999996,3309.2672578471233
325.5516841,3047.3954945428904
325.16817260000005,2825.5338977588444
324.7862428,2640.462869433563
324.40588419999995,2491.827419581181
324.0270864,2360.786829190709
323.649839,2253.297653768121
323.2741319,2156.8760052183466
322.8999548,2075.214005557713
322.5272977,1996.3758328311897
322.1561508,1928.5211352702481
321.786504,1852.475001358965
321.4183476,1787.9359035327109
321.0516719,1728.6916175185934
320.6864673,1672.113057263531
320.3227243,1607.8524856330478
319.96043330000003,1557.4654627871353
319.5995851,1498.9701409935474
319.2401704,1440.5013436836005
318.8821799,1391.4175276110773
318.5256045,1340.6141469685367
318.1704352,1285.780346842324
317.8166631,1236.1066654965598
317.4642791,1187.6880193021655
317.1132746,1140.2460924148738
316.76364069999994,1091.26736855276
316.4153688,1041.285081578435
316.06845039999996,999.1638596603917
315.72287689999996,958.455963344469
315.37863980000003,915.9767477663147
315.0357308,874.8794189975205
314.6941415,836.8885910543077
314.3538639,793.4112905804006
314.0148896,763.0209777075868
313.6772106,728.0192615297018
313.3408189,697.1654860666084
313.00570639999995,663.8732821377259
312.67186549999997,634.068005837471
312.33928810000003,605.8301275299922
312.0079665,578.2492792692452
311.6778931,552.7462475321961
311.34906010000003,530.1736780324271
311.0214601,503.26164852257216
310.6950856,477.8565749841225
310.369929,458.0415093033288
310.04598300000004,433.51592427246544
309.7232403,414.5427214912642
309.4016935,398.29863562711347
309.0813356,372.82220439668436
308.7621594,359.78488758663667
308.4441577,335.0014348513583
308.1273236,318.61370344683263
307.8116501,301.4921097164226
307.49713019999996,257.25512925699275
307.18375710000004,202.18687303287902
306.871524,164.80540668781768
306.5604242,122.24760479888765
306.2504509,83.70121732090622
