wave,flux
1817.164934,6.754957977122523
1790.1022050000001,-4.0756349696005545
1763.812741,-2.086206870408561
1738.2646949999998,-0.05468703615183135
1713.427949,4.940911485127799
1689.273995,2.4656129302693857
1665.7758310000002,5.996081381849171
1642.907862,5.307923823919923
1620.64581,15.225639829492154
1598.9666300000001,26.748571569185177
1577.8484310000001,38.71170800197525
1557.270407,54.724172070962155
1537.212767,76.68010104902436
1517.65668,99.46753985058348
1498.5842089999999,125.61941009977384
1479.978265,141.3808986748002
1461.822555,162.34282371320361
1444.101535,183.47753361175342
1426.800368,209.3589905462257
1409.904887,220.9722851517299
1393.401553,238.91962910694957
1377.2774220000001,256.27708261432394
1361.520115,268.57528966145327
1346.117782,280.28342666941126
1331.059081,301.91016263581383
1316.3331449999998,312.10790051007217
1301.92956,325.24332495194983
1287.838342,335.2249221602932
1274.049912,351.2280639754206
1260.5550779999999,365.2478161114902
1247.345017,377.424091942787
1234.4112519999999,399.3326248758855
1221.74564,400.77593036790137
1209.340352,421.68634453855225
1197.187859,430.6825392701555
1185.28092,440.522089984422
1173.612564,458.81993504988
1162.1760800000002,468.9766135122589
1150.9650060000001,479.8368362832034
1139.973115,496.83272808373016
1129.194406,509.8189890879073
1118.623093,524.0409343755067
1108.253594,538.019109631035
1098.0805269999998,548.8123964653283
1088.098695,567.5500570385127
1078.303081,576.2088612439611
1068.688841,591.2202890650699
1059.251295,610.2577171029012
1049.9859199999999,624.3674955221728
1040.8883449999998,642.201410371938
1031.9543429999999,665.3831998608813
1023.1798259999999,685.6054847680625
1014.5608390000001,710.1337234744666
1006.0935529999999,745.2241405141896
997.774265,772.3559252524983
989.5993858999999,809.6997853028897
981.5654412999999,845.6560383463489
973.6690651,888.9615175830481
965.9069952,928.5190367985393
958.2760697000001,966.5885165318994
950.7732231000001,1013.983314518698
943.3954827,1052.43592168066
936.1399648,1095.5220420714763
929.0038716,1123.4626722241949
921.9844879000001,1157.3504528259084
915.0791782,1184.7313492731168
908.2853836000002,1211.5714257181678
901.6006193,1238.5981873866776
895.0224714,1269.899706968902
888.548595,1294.6231371334748
882.1767113,1329.2502053636604
875.9046055,1361.6851547206281
869.7301242999998,1395.9223372871606
863.6511742999999,1455.9411962033025
857.6657193,1505.6879572789326
851.7717787,1582.3923865125284
845.9674256000001,1659.9337247896094
840.2507849,1767.783546289669
834.6200316000001,1896.2885664555954
829.0733892000001,2018.3306964991898
823.6091279,2188.2290522211433
818.2255633999999,2363.2456106175
812.9210552000001,2589.196526998967
807.694005,2817.388991121535
802.5428559,3050.9228286057646
797.4660904,3298.755255025948
792.4622299,3565.9140153134385
787.5298327,3839.0211574403243
782.6674933999999,4148.622142901934
777.8738417999999,4484.144417430807
773.1475413,4913.08645604161
768.4872882999999,5364.305067661722
763.8918112000001,5955.449315070882
759.3598692,6765.126423052541
754.8902515999999,7693.6987274369885
750.4817767999999,8798.597453612976
746.1332914,10115.49740882228
741.8436694000001,11590.955553547006
737.6118116,13153.919123384858
733.4366444,14804.893121510551
729.3171195,16283.23511289379
725.2522127999999,18145.73044806305
721.2409241,19741.558891894867
717.282276,21274.02234754194
713.3753136,23030.18985996886
709.5191037000001,24957.53120461751
705.7127343,27305.953445437433
701.9553139,30345.346168399014
698.2459709,34235.24542891528
694.5838534,39525.4557603675
690.9681281000001,46295.293168253185
687.3979803,54738.47849465334
683.8726131,64969.356727646154
680.3912472999999,77142.16722436374
676.9531202000001,90767.22636178716
673.557486,105959.26408613646
670.2036149,121757.45905121029
666.8907926,138153.68497879128
663.6183202999999,154119.1275798776
660.3855139,169261.7577212604
657.1917038,182605.43624083253
654.0362346,194074.7427501223
650.9184646000001,203056.13089696245
647.8377654,209264.7908650769
644.7935217999999,212842.68536072454
641.7851312999999,213316.19222185548
638.8120038,211612.10477295122
635.8735614,207803.77348680183
632.9692378999999,202268.23582725308
630.0984786,195666.72006225574
627.2607402000001,188294.44145899825
624.4554901,180873.9399449671
621.6822068,173311.12354412704
618.940379,166061.9067146829
616.2295054,159282.69878227153
613.549095,153069.83843174565
610.8986664,147385.7696284301
608.2777476,142162.49664023748
605.6858758999999,137283.8464747677
603.1225977000001,132835.17280674007
600.5874682,128576.14672795589
598.0800512,124639.65177117856
595.5999188999999,120869.72086328994
593.1466518,117325.1366163126
590.7198384999999,113938.27100516278
588.3190752,110780.72714418679
585.943966,107928.05238607504
583.5941226,105221.42712970902
581.2691637,102606.74919646922
578.9687155,100152.0290609534
576.692411,97801.77123721727
574.4398902,95428.44079909493
572.2107997,93090.36838098863
570.0047927,90685.47029679088
567.8215287,88253.64891255544
565.6606737000001,85822.12082751485
563.5218996,83367.33071134628
561.4048845,80965.55735634634
559.3093121,78697.67405852018
557.2348721,76516.83809244809
555.1812597,74491.35738713238
553.1481756000001,72526.44686365424
551.1353259,70849.21582051969
549.1424218999999,69250.99247716651
547.1691801,67817.96620632366
545.2153222000001,66533.88995528099
543.2805745000001,65202.69965392037
541.3646685,63951.91169864844
539.46734,62713.991643919384
537.5883299,61456.59630053611
535.7273833,60142.59148691952
533.8842498,58876.73995624744
532.0586836,57537.6523113723
530.2504428000001,56139.854024322194
528.45929,54798.9172291721
526.6849915,53406.71270190618
524.927318,52041.672667444815
523.186044,50724.91286930326
521.4609475999999,49436.898582643866
519.7518110000001,48170.278443216936
518.0584200000001,46986.484002210076
516.3805639,45837.292187602245
514.7180356,44748.06203926347
513.0706316000001,43713.198197060345
511.43815149999995,42674.81010323823
509.82039860000003,41714.62156574256
508.2171791999999,40787.19622910178
506.628303,39879.88477498654
505.05358269999994,39028.314488492055
503.4928341,38217.98582081083
501.9458762,37482.769267728734
500.41253059999997,36833.53458630811
498.8926222,36266.72033084669
497.3859785,35790.17205997613
495.89242989999997,35387.977254781756
494.4118094,35013.055419962635
492.943953,34664.09835962279
491.488699,34330.92492655004
490.04588839999997,33939.44595728763
488.6153648,33472.78862211866
487.19697429999997,32914.30971401266
485.7905654,32231.611774903373
484.39598889999996,31388.182509040216
483.01309800000007,30448.558302529746
481.64174840000004,29415.65360726939
480.28179789999996,28324.16996868613
478.93310639999993,27234.301567773946
477.59553619999997,26140.288574593764
476.2689517,25121.436469335684
474.9532192,24157.64728529053
473.6482074,23296.49508105105
472.35378679999997,22536.61276067014
471.06982989999995,21872.21394290711
469.79621110000005,21229.769107821317
468.53280700000005,20644.8968106314
467.2794956999999,20063.249275384398
466.0361575,19458.499587349423
464.80267410000005,18861.884901186582
463.5789295,18205.68448267592
462.364809,17543.054265300725
461.1601998,16818.086771936894
459.9649909,16125.598444121564
458.7790727,15438.529956322884
457.6023374,14768.07938749586
456.4346788,14130.859122816924
455.2759921,13530.821428043879
454.12617439999997,12982.21994260444
452.9851239,12475.2125381737
451.85274060000006,12027.39148998292
450.7289258,11613.13855235658
449.6135822,11240.060872855991
448.5066141,10911.00924567126
447.407927,10605.124737819142
446.317428,10358.408869726352
445.23502520000005,10133.741051338122
444.1606283,9940.305021085931
443.0941482,9800.26666155343
442.03549699999996,9699.708677446231
440.9845882,9624.297635914723
439.9413364,9587.810125557397
438.9056575,9556.680540594898
437.87746860000004,9531.463960325187
436.85668780000003,9521.541406569113
435.8432345,9474.139910518117
434.83702930000004,9391.140958248176
433.83799369999997,9251.389976045808
432.84605039999997,9084.802204144411
431.8611232,8852.963165989053
430.8831369,8573.320424474536
429.9120175,8247.41100754346
428.94769169999995,7891.498011187522
427.9900874,7506.979804062232
427.03913370000004,7130.084258774768
426.0947602,6765.1264051967055
425.1568978,6406.356660089342
424.22547829999996,6081.3838772582385
423.3004343,5805.309126488856
422.3816994,5552.491985772438
421.4692081,5335.707167276399
420.56289569999996,5147.035555008576
419.66269850000003,5006.094852455871
418.7685535,4878.1883746864705
417.8803987,4758.387300784121
416.9981727,4668.78685486949
416.12181519999996,4583.372424627163
415.25126639999996,4499.8710845856895
414.38646760000006,4428.582492771248
413.5273605,4348.891867433023
412.673888,4263.795213775849
411.8259934,4179.0152467863845
410.9836208,4089.7632830137013
410.14671519999996,3990.691795426365
409.3152221,3885.338542855072
408.48908789999996,3760.372553514621
407.66825960000006,3640.4212115135865
406.8526847,3509.9019453642463
406.0423117,3366.149999589264
405.2370896,3239.108264298644
404.43696800000004,3089.937630319475
403.64189730000004,2947.753441971889
402.8518283,2819.2197496857043
402.0667126,2691.277031576521
401.28650239999996,2574.025275813379
400.5111505,2465.3250333431456
399.7406101,2363.8706007022347
398.9748353,2268.798217834073
398.2137806,2184.235572115253
397.457401,2104.055495980324
396.7056521,2032.0431280545315
395.9584903,1957.5635267863815
395.2158722,1891.071968527198
394.4777551,1829.1859148086755
393.7440968,1755.556415894675
393.0148555,1685.0504279048425
392.2899901,1633.9537453944422
391.56946,1576.4143591283898
390.853225,1514.1584754487862
390.1412452,1452.9473243724026
389.43348169999996,1411.6411120772711
388.7298955,1365.5288362734102
388.03044839999995,1314.8744689849552
387.3351027,1267.2614922064329
386.6438209,1224.7681672294846
385.95656610000003,1181.3069503988024
385.2733019,1135.383432829192
384.5939922,1092.1618490086585
383.9186014,1056.6261003411344
383.2470943,1015.4619236401472
382.5794362,979.495047088782
381.9155926,946.5270062158515
381.2555296,910.3758975406402
380.59921360000004,881.4341110831427
379.9466115,857.7590521749703
379.29769039999996,829.5407266914868
378.652418,816.0961423352354
378.0107622,795.4428251033992
377.37269130000004,784.1931848640645
376.73817410000004,766.6444926813507
376.1071796,757.7620319135747
375.47967719999997,749.6990407815002
374.8556368,736.1305943634741
374.2350283,725.007755889822
373.6178223,719.9823253102447
373.0039896,710.2264258109041
372.3935012,701.6591883721312
371.78632860000005,696.3391134775934
371.1824436,684.7765768206955
370.5818182,677.449536303374
369.98442489999996,675.2804722888412
369.39023629999997,666.0562078221368
368.7992255,657.4398041698834
368.2113658,651.6256574710379
367.6266307,658.5381728987484
367.0449943,650.8296907857601
366.4664305,647.755298712687
365.89091410000003,649.1972040635105
365.3184196,647.0907450449301
364.7489221,648.2033430820103
364.18239689999996,646.9392954629848
363.61881960000005,642.3394367450578
363.058166,642.4482315214849
362.50041219999997,638.0415138950377
361.94553460000003,638.4105271220304
361.3935098,634.7177749444447
360.8443147,631.2157697377813
360.29792630000003,622.2471741836846
359.754322,612.8733160439675
359.2134795,606.1814505712315
358.6753765,605.5487985960493
358.1399912,594.9709252529499
357.6073018,585.1152185331828
357.077287,576.2523397803466
356.5499253,566.340384404453
356.025196,556.6327726878576
355.50307799999996,546.4181147888668
354.983551,538.9249336110393
354.4665945,528.2766334924396
353.95218839999995,514.6904847570105
353.4403127,505.8494718953656
352.9309478,497.1033340109584
352.42407410000004,484.67348056126366
351.9196722,475.726595043048
351.4177232,470.7225559678685
350.91820789999997,456.76062361221426
350.4211078,446.4683413720469
349.9264043,442.67427226707116
349.434079,438.976206317372
348.9441137,425.9941968553137
348.45649060000005,420.02408308892205
347.97119169999996,407.70035081287284
347.48819960000003,397.29074085226654
347.0074967,393.8889356738604
346.5290657,388.107421784969
346.0528897,381.46456279137533
345.5789517,377.7485193197333
345.1072349,366.94848818802
344.6377228,362.19905540351607
344.17039889999995,363.1173735741874
343.70524710000007,355.34638194546466
343.24225110000003,348.67966631667366
342.7813952,339.02032316912965
342.32266339999995,330.82420261313086
341.8660403,322.8499468204599
341.4115102,310.1367568294212
340.959058,295.3497983276848
340.5086685,278.4835894377616
340.06032660000005,265.48503456200683
339.6140175,253.9351626536504
339.1697264,233.6371067427528
338.7274388,219.8833722789228
338.28714019999995,205.18888345087413
337.8488164,193.61641544894917
337.41245310000005,186.2825267430589
336.9780363,169.4837360765984
336.5455522,160.77999675243728
336.114987,149.66588440089757
335.686327,147.55396056567855
335.2595588,138.6290869389947
334.834669,129.65559746847444
334.4116443,124.60756352112577
333.9904716,122.26177240154169
333.57113799999996,112.90772678840412
333.1536305,102.33366478654493
332.73793639999997,99.18183907786249
332.32404310000004,90.8568902832692
331.91193799999996,84.54680930662778
331.5016088,75.76274860475633
331.0930432,74.81110853009758
330.6862289,64.46673787989437
330.281154,60.32993566377218
329.8778065,49.378921997351895
329.47617460000004,46.76000231255159
329.07624649999997,39.734747699945224
328.6780106,36.29961451215133
328.2814555,37.67663903083634
327.88656960000003,30.844993435714077
327.4933418,28.947909593559874
327.1017607,26.84127842060824
326.7118154,21.133798567332864
326.32349480000005,20.162311390700093
325.93678789999996,20.140126703093195
325.5516841,16.232905925051956
325.16817260000005,16.977259723824087
324.7862428,19.170462008374802
324.40588419999995,14.700634538543945
324.0270864,15.866568510062509
323.649839,17.173516604318042
323.2741319,17.115633751572542
322.8999548,12.826077547722486
322.5272977,15.57302762802106
322.1561508,11.393578351103585
321.786504,13.114668481593108
321.4183476,15.475793521085675
321.0516719,9.80099308472158
320.6864673,7.173260600995443
320.3227243,9.52328391030438
319.96043330000003,8.033898276050554
319.5995851,10.160122677820649
319.2401704,9.199297938332258
318.8821799,8.446609819745444
318.5256045,9.484250973985922
318.1704352,9.945366829884927
317.8166631,10.884156639114599
317.4642791,13.135777576660686
317.1132746,3.1257122166163684
316.76364069999994,5.615153489131257
316.4153688,7.130556906261424
316.06845039999996,10.206263021706333
315.72287689999996,4.942605338152897
315.37863980000003,6.497611823085836
315.0357308,2.0644748051993083
314.6941415,5.178720138633727
314.3538639,3.599359995728765
314.0148896,5.03373077079738
313.6772106,0.03591384720594082
313.3408189,2.064497049277354
313.00570639999995,1.5110107329243636
312.67186549999997,-0.2681717236587113
312.33928810000003,4.6297544221872196
312.0079665,1.9198640316214184
311.6778931,2.0962915127162933
311.34906010000003,7.377341220300792
311.0214601,1.3881826553538597
310.6950856,4.9512954626818555
310.369929,4.732796694210369
310.04598300000004,1.7896788091466531
309.7232403,-0.07722182121642572
309.4016935,5.400883916548027
309.0813356,3.835189238752237
308.7621594,5.696979724972636
308.4441577,2.423753183248816
308.1273236,1.0750810407379672
307.8116501,1.9874169978194711
307.49713019999996,3.7235685142970887
307.18375710000004,3.321967153687994
306.871524,2.795842563206582
306.5604242,-2.156719028157159
306.2504509,-5.023204684536477
