wave,flux
579.7349067000001,1367.3844530362544
580.4012016,644.9907128839158
581.0690204,27935.474367476698
581.7383737,58233.71402072122
582.4092722999999,90931.6096506684
583.0817268999999,126236.01726540223
583.7557482999999,163881.5795023902
584.4313472,204090.6030475617
585.1085343999999,246808.64009719843
585.7873207,292250.86665311514
586.4677171,302314.6336107465
587.1497343999999,312435.72652404144
587.8333835,322617.6229935772
588.5186752999999,332777.60328686034
589.2056208,342852.7356501027
589.8942308999999,352307.56469108135
590.5845168,361737.7414186152
591.2764894,370646.5498157362
591.9701597999999,378942.31520306686
592.665539,387081.7452023456
593.3626383,394495.41395728034
594.0614688,402019.3389184569
594.7620416,409236.5613181355
595.4643679,416475.61634683865
596.1684591,424589.69283660623
596.8743264,432929.9992972071
597.5819809999999,442513.2858320867
598.2914344,453308.72266359755
599.0026978,464912.4426905574
599.7157827000001,477232.06944459036
600.4307005,490991.7641108603
601.1474627,505372.339180362
601.8660807,519385.8091438472
602.5865660000001,534748.185334562
603.3089302999999,549553.4901330362
604.0331851,563691.2180854591
604.7593419,578890.8361886026
605.4874126,593856.9009675765
606.2174086,609177.4527435183
606.9493418,626029.1174188376
607.6832239,644966.1352837947
608.4190667,664353.8997501064
609.1568819,686366.6406576397
609.8966815,710238.0349190419
610.6384772000001,734531.3528653262
611.3822811000001,761103.2649533645
612.128105,788012.7532414688
612.8759610000001,815367.9480007343
613.625861,844156.2814597973
614.3778171,871489.7305202505
615.1318413,900980.4165660286
615.8879458,930658.5456423505
616.6461426,963903.6278499112
617.4064441,999208.3471902113
618.1688624,1037444.0277143876
618.9334097,1081556.722261445
619.7000982000001,1129103.2911456344
620.4689404000001,1183392.084299022
621.2399486,1244768.7277695918
622.0131351,1307519.6904169016
622.7885123,1377252.3274995328
623.5660927,1452709.44328606
624.3458887999999,1533757.06035158
625.127913,1621000.4809541176
625.9121779,1717467.1746284866
626.698696,1824460.7153002732
627.48748,1953948.8821351773
628.2785426,2105823.797155784
629.0718962999999,2298849.939673924
629.8675538,2540856.470841716
630.6655279,2830288.518169938
631.4658314,3161369.1470985683
632.268477,3525957.324539903
633.0734776,3916417.0362826674
633.880846,4316981.024804774
634.6905951,4708938.312100272
635.5027378999999,5065501.233483792
636.3172871,5359520.796717813
637.1342559,5596299.0979857715
637.9536572000001,5776817.6022195285
638.775504,5903546.478319232
639.5998095,5985779.545222132
640.4265866000001,6027116.715806168
641.2558486,6041107.963172222
642.0876085,6039842.951141893
642.9218795,6041542.121647278
643.7586747,6041009.213557088
644.5980075,6041024.173442549
645.4398911000001,6041663.093422124
646.2843386,6041440.829807394
647.1313635,6041576.172431926
647.980979,6042071.662459238
648.8331985,6041284.543812666
649.6880352999999,6041575.970021578
650.5455028,6041171.507952179
651.4056144,6041977.734776874
652.2683836,6041346.362597001
653.1338237000001,6041424.1232063025
654.0019482999999,6040729.502281892
654.8727708,6041166.782959545
655.7463047,6041678.577344864
656.6225636,6041484.915059323
657.501561,6041797.9942069985
658.3833105,6041018.10712706
659.2678255,6041293.867049863
660.1551197000001,6041297.296718242
661.0452068,6041216.877176247
661.9381002,6041304.700632298
662.8338137000001,6041556.515781964
663.7323607999999,6041338.934281563
664.6337553,6041288.9777760375
665.5380107000001,6041569.501945599
666.4451407,6041464.574198487
667.355159,6041460.100084517
668.2680793,6041354.231438585
669.1839152000001,6041001.948748626
670.1026805,6041703.916965698
671.0243889,6041382.675493407
671.949054,6041423.2110725725
672.8766895,6041330.329409915
673.8073092,6041641.480296317
674.7409267,6041576.948697748
675.6775557999999,6041865.912200939
676.6172101,6041236.900079843
677.5599033,6041310.298689762
678.5056492000001,6041540.069624977
679.4544612999999,6041464.44428096
680.4063535,6041356.145043276
681.3613392999999,6041502.268690666
682.3194324,6041670.165244503
683.2806465,6041596.436129496
684.2449952000001,6041430.58906368
685.2124921,6041673.43972093
686.1831509,6041397.889805856
687.1569850999999,6041343.820121645
688.1340083,6041543.681582113
689.1142341,6041337.150723914
690.097676,6041562.154083562
691.0843474999999,6041596.544697252
692.0742622,6041124.295419333
693.0674334,6041423.0875970125
694.0638748,6041350.209296586
695.0635996,6041471.5327450475
696.0666212,6041174.810474562
697.0729531000001,6041214.723802943
698.0826086,6041221.303831845
699.0956008999999,6041664.117774907
700.1119432999999,6041022.670097026
701.1316491,6041140.935935226
702.1547314,6041548.048278865
703.1812034,6041332.426964764
704.2110782000001,6041425.187595067
705.2443688999999,6041183.787513497
706.2810885,6041689.608998988
707.3212499,6042010.951420656
708.3648661000001,6040731.76619988
709.41195,6041471.8057370875
710.4625143999999,6041539.305652016
711.5165721,6041383.347039329
712.5741357,6041590.6346544735
713.6352181,6040965.350738407
714.6998317000001,6041258.956869118
715.7679891,6041706.288562766
716.8397027999999,6041467.470479804
717.9149852,6041316.79880218
718.9938487000001,6041478.534215528
720.0763055,6041543.2463499885
721.162368,6041299.387420118
722.2520481,6041558.164567155
723.3453581,6041690.784976297
724.4423098,6041495.036623038
725.5429153,6041363.199794832
726.6471863,6041392.552382735
727.7551346,6040833.0225595115
728.866772,6041301.388381648
729.9821099,6041488.978348271
731.1011599,6041851.42832932
732.2239335,6041260.447803807
733.3504419,6041024.398593312
734.4806963999999,6041179.975764098
735.6147081,6041347.259988813
736.7524882,6041630.039110413
737.8940474,6041481.63213068
739.0393967,6041698.179640138
740.1885467999999,6041015.681325905
741.3415084,6041470.497050399
742.498292,6041457.7589626415
743.658908,6041175.153767993
744.8233667999999,6041378.977355275
745.9916785,6041556.838031982
747.1638532000001,6041340.048208493
748.3399009,6041480.190849203
749.5198315,6041408.178308326
750.7036546,6041561.942302218
751.89138,6041344.314562161
753.0830171,6041306.240744853
754.2785752999999,6041154.199560109
755.4780638,6042045.131619885
756.6814917,6041236.152560253
757.8888678999999,6041627.931052808
759.1002014999999,6041084.264561546
760.3155009,6041537.75617124
761.5347749,6041373.693731195
762.7580318,6041597.340694687
763.98528,6041236.681372298
765.2165276000001,6041202.512790639
766.4517825,6041104.60467413
767.6910527000001,6041352.120172933
768.9343458999999,6041479.112454868
770.1816697,6041783.363966255
771.4330313999999,6041703.420980771
772.6884382999999,6041159.589016893
773.9478975,6041651.518114454
775.211416,6041485.2708054315
776.4790005,6041319.854969967
777.7506578,6041756.135397853
779.0263942,6041442.594562189
780.3062162,6041681.240134792
781.5901297,6041615.4850724265
782.8781409,6041087.044951575
784.1702554999999,6041269.853115634
785.4664793,6041578.315395298
786.7668176,6041548.4872274585
788.0712758,6041708.891979023
789.3798591,6041645.876038355
790.6925722999999,6041686.089674353
792.0094204,6041256.989904395
793.3304079,6041257.4822297525
794.6555392000001,6041405.6865276825
795.9848187000001,6041399.53048666
797.3182504,6041520.426136458
798.6558382999999,6041149.548485327
799.9975861,6041386.151637081
801.3434973,6041219.665349098
802.6935752999999,6041691.030271141
804.0478232999999,6041122.59883426
805.4062443,6041654.64656369
806.7688411,6041579.17906553
808.1356164,6041431.846101683
809.5065726,6041874.750981663
810.881712,6041292.410441822
812.2610367000001,6041184.132055555
813.6445485,6041222.068316695
815.0322493,6041089.439319776
816.4241404,6041712.391665812
817.8202233,6041691.76420253
819.2204991,6041092.485975786
820.6249687999999,6041379.649735449
822.0336331,6041349.662105355
823.4464925999999,6040827.558145722
824.8635477000001,6041398.882115892
826.2847987,6041502.120851156
827.7102456,6041263.426566805
829.1398882,6041617.50355955
830.5737261,6041424.30370681
832.0117589,6040939.645539473
833.4539857000001,6041501.314321292
834.9004057999999,6041539.522575128
836.3510179,6041305.979089548
837.8058209,6041562.244157536
839.2648132999999,6040648.638163662
840.7279934000001,6041130.0321970275
842.1953594,6041436.685946481
843.6669092,6041244.944775265
845.1426408,6040949.599571544
846.6225517000001,6041619.5384714035
848.1066392999999,6041285.850753377
849.5949009999999,6041622.151386359
851.0873337999999,6041606.791762096
852.5839347000001,6041218.42205196
854.0847002999999,6041519.773679042
855.5896273,6041194.927991801
857.0987119999999,6041389.856567679
858.6119507000001,6041534.314218909
860.1293393999999,6041064.039377102
861.650874,6041334.287560669
863.1765502000001,6041314.351180318
864.7063635,6041452.687028537
866.2403094,6041748.918553326
867.778383,6041381.3297045
869.3205793999999,6041251.120367898
870.8668935000001,6041165.998442968
872.4173199999999,6041170.84338492
873.9718536,6041529.776288959
875.5304886,6041485.446667201
877.0932193,6041083.80881001
878.6600399,6041400.170628107
880.2309443,6041492.964835996
881.8059264000001,6041520.270839122
883.3849798,6041313.840711521
884.9680981,6041247.521634169
886.5552747000002,6041827.303127424
888.1465029,6041528.189189022
889.7417757000001,6041321.290688127
891.3410862,6041277.001548451
892.9444273,6041656.01965771
894.5517916000001,6041585.436252585
896.1631719000001,6041358.660659002
897.7785605,6041627.968014935
899.3979498,6041268.295515528
901.0213321,6041531.102240226
902.6486994999999,6041634.169402065
904.280044,6041837.8937949585
905.9153574999999,6041375.717256596
907.5546319,6040897.325346583
909.1978586000001,6041417.309317599
910.8450295,6040862.177182522
912.4961357999999,6041371.550763822
914.1511691,6041506.948773941
915.8101205,6041371.089309337
917.4729812999999,6040933.064674595
919.1397426000001,6041339.389080505
920.8103953,6041397.087197373
922.4849303,6041080.560250782
924.1633386,6040949.517369735
925.8456108999999,6040622.359584588
927.5317377999999,6041216.387510315
929.2217099999999,6041001.93481186
930.9155178999999,6041170.499981548
932.6131521,6041277.832617528
934.3146027999999,6041398.98324638
936.0198606,6041374.214707197
937.7289155,6041449.795760878
939.4417579,6041414.253832247
941.1583778999999,6041688.148672385
942.8787656,6041488.8209428815
944.6029108999999,6041743.959998633
946.3308041000001,6041215.432233552
948.0624349,6041101.074756183
949.7977933,6041162.601813404
951.5368692,6041501.239712901
953.2796523,6041446.386664008
955.0261327,6041104.11410477
956.7762999,6041015.690461685
958.5301437,6041411.650973032
960.2876538999999,6041572.4045904325
962.0488201,6041607.034312682
963.813632,6041444.486643469
965.5820792999999,6041255.791431308
967.3541517000001,6041161.343555733
969.1298386,6040802.0507956
970.9091298000001,6041786.937220981
972.6920149,6040940.408821635
974.4784835,6041696.908199837
976.2685251,6041640.951523325
978.0621292999999,6042221.748915667
979.8592858999999,6041655.018035607
981.6599843,6041569.987732125
983.4642142000001,6041452.985629778
985.2719651000001,6041201.697816948
987.0832268999999,6041210.95885842
988.897989,6041429.447140722
990.7162412,6041773.238595463
992.5379731,6041498.577665312
994.3631744999999,6041461.910403556
996.191835,6040580.91005966
998.0239445000001,6041195.380282587
999.8594926000001,6036933.984112318
1001.6984689999999,6025830.381564893
1003.540864,6005541.318677625
1005.386668,5970479.392391345
1007.235869,5922488.79395872
1009.0884580000001,5854557.034065419
1010.944426,5763887.07846263
1012.8037619999999,5646524.946802993
1014.666456,5508183.806263482
1016.532498,5351729.093567502
1018.4018779999999,5175745.897359204
1020.2745880000001,4987829.736157032
1022.150616,4790068.376825563
1024.029953,4585022.513410054
1025.912591,4379428.815428544
1027.798518,4176540.306676095
1029.6877259999999,3975226.364056204
1031.580205,3780598.9854047736
1033.475945,3591314.2626726567
1035.3749380000002,3411262.476746659
1037.277175,3237673.3897514357
1039.1826449999999,3072454.0319134938
1041.09134,2914445.0596239436
1043.003251,2763810.4019457716
1044.9183679999999,2618416.4767357768
1046.836683,2479091.435737796
1048.758188,2344118.59699647
1050.682872,2214168.498909934
1052.6107279999999,2086571.3960046119
1054.541747,1962783.4544563082
1056.4759210000002,1842499.696393712
1058.41324,1725951.2499604162
1060.353697,1612446.453925645
1062.297282,1503485.6650395046
1064.243989,1396361.889770892
1066.1938089999999,1294183.2049513652
1068.146734,1196011.6210534468
1070.1027550000001,1102633.0060575851
1072.0618650000001,1012163.8782135531
1074.024056,925820.8250749599
1075.989321,842722.6147027494
1077.957651,763529.2368070291
1079.92904,686907.3837960595
1081.9034800000002,613771.5602460885
1083.880963,543849.1581080436
1085.861482,475977.9879104581
1087.8450300000002,410865.22303373815
1089.8316,349788.36014391045
1091.821185,291921.74426909786
1093.8137789999998,237956.50308256486
1095.809373,189553.36985554086
1097.8079619999999,146869.26047926644
1099.809539,109844.51726653332
1101.814098,79386.162396564
1103.821631,54947.909024151435
1105.832134,36286.109857642135
1107.845599,22971.196118516567
1109.86202,13645.447664837051
1111.881392,7356.524507574115
1113.903708,3692.0064408719472
1115.928963,1598.5883873422388
1117.95715,537.6844154825302
1119.988266,182.35315819336887
1122.022303,-25.32310191087391
1124.059256,-61.97511544365037
1126.0991199999999,96.68999177386536
1128.14189,-15.256316095702909
1130.187561,-3.0299979717112104
1132.236128,-19.783566493026182
1134.287585,-10.429225330311212
1136.341929,-18.481935627090362
1138.3991529999998,0.4382551666693788
1140.4592539999999,-0.32258207314560305
1142.522228,-0.7672921789157017
1144.588069,-0.7345760465064974
1146.6567730000002,-0.7897819939455367
1148.728337,1.6382468430827617
1150.802756,2.6454423237502374
1152.880025,2.9446435269870506
1154.960142,2.432883058562062
1157.043103,-2.2414053898516637
1159.128903,0.36016594466221785
1161.217539,2.6347844747527502
1163.309007,-0.7531182097058866
1165.403305,0.8895567799443275
1167.500429,1.6486906762670075
1169.600375,0.6975933991965071
1171.703141,-2.1449048599383045
1173.808724,0.931037609687438
1175.9171199999998,-1.792123889885749
1178.028327,-4.973358453126086
1180.142342,1.6704415324486654
1182.2591630000002,3.99794196447209
1184.3787869999999,-2.3999130797937087
1186.501211,-0.9818657709152452
1188.626434,4.533473943532308
1190.754453,0.7531188028504406
1192.885266,0.2333431441649568
1195.018872,-0.05441271378781437
1197.155267,-1.061914302364402
1199.294451,-1.7083205612241552
1201.436421,1.814755621787845
1203.581177,-0.3550682003545341
1205.728716,0.8408419355847303
1207.879037,-0.5555196740053635
1210.0321390000001,0.28556222632562994
1212.1880199999998,0.9302509477266322
1214.34668,0.5613107276280145
1216.508117,2.210088974834709
1218.67233,-0.8133506887560998
1220.839319,0.5982524740865278
1223.009083,0.4492336590272704
1225.1816210000002,2.3087572061464585
1227.3569320000001,-0.7324165039369352
1229.535016,1.8476844437173128
1231.715873,2.187606363676067
1233.8995029999999,-1.095479073613992
1236.0859039999998,0.91849738898654
1238.275078,1.041615278915005
1240.467024,0.3678561740705189
1242.6617410000001,0.018160914475701968
