wave,flux
336,31734.913886845352
338,47384.85236049558
340,76831.71057288726
342,124066.91657864203
344,189213.7843173837
346,264871.94259270345
348,336575.4108981421
350,393568.4911216062
352,435328.51351596747
354,466386.52747562673
356,491177.9171984865
358,512884.2638676761
360,531901.9249478286
362,546933.5050754852
364,567951.5349621509
366,627963.113783422
368,758786.4387928019
370,934941.9502091177
372,1065058.4248980747
374,1072530.0908557482
376,977214.5132415526
378,879926.8781437235
380,878225.9892464802
382,1002609.3295370961
384,1209051.5449432216
386,1411448.661109743
388,1542203.716156833
390,1605323.3869803583
392,1667795.455802605
394,1782648.0032079902
396,1931711.9884460988
398,2050780.676968828
400,2114254.622476629
402,2156127.3446752713
404,2228449.9986424465
406,2348744.1774411723
408,2491368.2043909333
410,2617480.5805793586
412,2704237.328842882
414,2755232.423728439
416,2793323.4247470307
418,2848245.941608837
420,2948245.6175425705
422,3118834.5567267314
424,3382495.806971522
426,3753281.668986007
428,4219771.577705229
430,4729559.133411274
432,5195550.038608519
434,5526866.988935441
436,5667392.025998537
438,5629193.57475792
440,5481168.925861514
442,5312991.118412974
444,5196014.264258699
446,5160972.2395814
448,5205493.596673863
450,5311144.697976721
452,5453144.051456049
454,5605710.051823709
456,5751164.576843984
458,5872105.676242876
460,5956379.567443231
462,6007298.942820391
464,6032774.813851231
466,6040958.028870759
468,6041694.454478507
470,6040983.761521847
472,6041199.357727214
474,6041573.506477379
476,6041266.221350608
478,6041236.350482781
480,6041541.604219732
482,6041262.905698464
484,6041409.830637838
486,6041563.637520847
488,6041432.600006804
490,6041298.211750513
492,6041244.0910447305
494,6041363.124672225
496,6041032.391050186
498,6041399.264601755
500,6041457.001103752
502,6041537.998573796
504,6041472.252171508
506,6041754.48982387
508,6041079.252128146
510,6041522.668269908
512,6041450.001527491
514,6041529.399729649
516,6041466.306158548
518,6041014.942878507
520,6041685.375101506
522,6041574.395170591
524,6041789.471090337
526,6041724.053873706
528,6041448.631607868
530,6041613.876646671
532,6041334.865378295
534,6041155.907566715
536,6041464.810294553
538,6041517.530854556
540,6041634.1872783415
542,6041587.743721192
544,6041431.645378916
546,6041575.128554884
548,6041365.313230675
550,6041281.369288758
552,6041259.746748878
554,6041348.98222598
556,6041257.271238374
558,6041214.50382344
560,6041898.749444202
562,6041960.15576054
564,6041443.1214331165
566,6041074.597667263
568,6041011.813834378
570,6041358.743744753
572,6041430.957650012
574,6041346.45969634
576,6041639.020711816
578,6041781.322431079
580,6041664.96684751
582,6041604.323163261
584,6041516.33151938
586,6041255.374328819
588,6041161.339120825
590,6041678.734225878
592,6041450.292243476
594,6041102.3362159785
596,6041481.262032409
598,6041548.3786231475
600,6041080.751019829
602,6041584.143179035
604,6041688.184398733
606,6040977.094311276
608,6041282.584610099
610,6041657.174244501
612,6041818.893940882
614,6041333.9203883475
616,6040325.30694645
618,6040590.225840291
620,6041066.006115331
622,6041203.419451549
624,6041561.733762724
626,6041769.774933696
628,6041701.4797094865
630,6041396.63467787
632,6040935.764617204
634,6040755.102434506
636,6040889.109502052
638,6040987.901223388
640,6041076.025577454
642,6041803.818674167
644,6043142.542182514
646,6042185.132187389
648,6040483.153610256
650,6041126.623844807
652,6040346.436860967
654,6038742.461030261
656,6040298.336787859
658,6041592.4249246
660,6041163.880510301
662,6042056.075912356
664,6043138.676736868
666,6042684.681944533
668,6041864.843947305
670,6037444.5129790455
672,6023252.675513451
674,5999856.912935968
676,5967747.640097621
678,5922561.055954797
680,5863619.266945458
682,5793697.959187693
684,5711245.273189029
686,5614212.1115286155
688,5505430.665727743
690,5386199.660756161
692,5253660.752149157
694,5107813.015362892
696,4951951.200587901
698,4791057.555284357
700,4630525.157907107
702,4472913.168400043
704,4319879.925547265
706,4173539.982043692
708,4035046.795665202
710,3902761.3384100874
712,3775286.4537570686
714,3652608.2682802766
716,3534827.7792041837
718,3421959.1281774133
720,3313703.5552436775
722,3209320.6568181557
724,3108063.5613837703
726,3009213.3785905614
728,2911569.154323266
730,2813266.3562757806
732,2713023.1724748714
734,2610521.0990744475
736,2505856.39739069
738,2399720.4085063585
740,2292645.572441958
742,2184664.4900133875
744,2076188.4925142222
746,1969047.2836874553
748,1865043.4258534862
750,1764477.0565923154
752,1667265.7460708644
754,1573966.6737261561
756,1485444.3688498319
758,1402315.8203345921
760,1324976.7495709315
762,1253506.6227653131
764,1187488.5190582764
766,1126566.7343443558
768,1070746.2559511047
770,1020059.5769639261
772,974120.4555697981
774,932340.8629822755
776,894468.5133822032
778,860660.1513623252
780,830736.9808589155
782,803327.1188460103
784,776935.8755227295
786,751511.4411469095
788,727929.9142842166
790,706517.4406884024
792,686455.7528253273
794,666863.5103343535
796,647473.2394396656
798,628316.934200056
800,609369.5452906428
802,590496.480993684
804,571570.8731034563
806,552649.3250590794
808,533888.4278577575
810,515368.01620026695
812,496969.70311239996
814,478556.83229335095
816,460240.00483563903
818,442352.875423098
820,425179.5629219969
822,408680.6062710959
824,392703.9328232986
826,377193.5177240437
828,362310.6605122145
830,348241.9250745143
832,335048.046311887
834,322651.2846525671
836,310974.5210798075
838,300023.3137909555
840,289853.32989522215
842,280499.2490053283
844,271868.94260112586
846,263824.33100324904
848,256261.16919058215
850,249204.3423262811
852,242709.4482812079
854,236804.14853232654
856,231436.44410803454
858,226540.24777689858
860,222055.33811180646
862,217935.85333526993
864,214138.08317606282
866,210616.7285511868
868,207322.6804070529
870,204206.3050667625
872,201238.44874357665
874,198444.93657835273
876,195860.72254600332
878,193505.72795927015
880,191347.7422608179
882,189343.26167960907
884,187453.988805147
886,185668.8049805418
888,183985.4312982218
890,182400.8642657386
892,180905.21053886585
894,179484.78557503113
896,178126.27824234907
898,176826.39198250388
900,175592.14269827932
902,174430.9899907733
904,173344.28732000676
906,172319.75270716433
908,171343.257374112
910,170399.64935002662
912,169467.46548082915
914,168522.8385930862
916,167542.80367351993
918,166529.71077887973
920,165513.98055926638
922,164527.493486697
924,163589.5915762897
926,162670.6164466592
928,161728.9413736225
930,160724.46756769382
932,159652.56025040968
934,158544.2281976529
936,157432.04402895525
938,156340.06249905043
940,155250.28241294014
942,154131.74568417692
944,152953.7568065951
946,151705.84561074607
948,150411.61707709904
950,149097.9508811768
952,147790.03721234764
954,146489.0798991917
956,145178.45792928003
958,143841.1272590528
960,142463.2610797847
962,141050.59224976576
964,139616.20501514667
966,138173.196454895
968,136730.3396500475
970,135281.35897842955
972,133816.70709843308
974,132326.85546204975
976,130808.76743278274
978,129275.37456198597
980,127742.01942811982
982,126224.00604780295
984,124730.01200620072
986,123254.62701658632
988,121790.63809503087
990,120330.84811826122
992,118871.4093099262
994,117415.94030003122
996,115969.06897667084
998,114535.4229343309
1000,113119.34949755193
1002,111724.39390603371
1004,110353.95882963273
1006,109011.44693820554
1008,107699.75601393529
1010,106419.45962423064
1012,105170.46296580647
1014,103952.6711757164
1016,102765.92921807828
1018,101609.50158347476
