wave,flux
336,84.29034924756951
338,116.69737192631437
340,187.20236154833526
342,297.3833992848866
344,465.51499572668524
346,694.2890584744243
348,956.2234529358677
350,1293.4744057532434
352,12966.740724076284
354,42312.41647412504
356,69035.26570399036
358,81463.3652237279
360,88028.36948855712
362,95431.15205964337
364,103790.08348464358
366,113260.28506832362
368,124161.96512527428
370,137043.66398798706
372,154479.67770993835
374,181802.21686784038
376,218293.09812077126
378,253141.0380205148
380,278846.17760305025
382,302137.6094419583
384,326451.81342164177
386,341025.8237163712
388,337026.85443122074
390,324626.3958833206
392,320262.4615893157
394,353106.5361738547
396,449586.2910611297
398,626641.3551181832
400,854420.5589150852
402,1096860.1760091071
404,1368609.2969959679
406,1791410.4982423
408,2537578.364616827
410,3554545.235340212
412,4640092.9042904
414,5446966.453887497
416,5883898.610261633
418,6032634.350249786
420,6041413.746491125
422,6041407.713677507
424,6041494.462856017
426,6040496.997230351
428,6002719.021264725
430,5869583.763710501
432,5590360.679829166
434,5126375.822471216
436,4518701.1139647765
438,3852989.4024403454
440,3209745.5362255764
442,2660600.847042702
444,2232847.8937115273
446,1916188.0154496639
448,1691650.4793992601
450,1539989.8262551688
452,1445116.9301051768
454,1397174.9107053191
456,1389793.886424397
458,1424886.9705851553
460,1514821.6560241247
462,1676652.801984163
464,1917525.9418170967
466,2224369.8891871553
468,2566418.229508328
470,2907071.7518757726
472,3229575.146940051
474,3550878.068478685
476,3883675.472803072
478,4243738.305109298
480,4638540.644185952
482,5045243.043200704
484,5403879.049001026
486,5679024.6390072815
488,5873126.828319416
490,5987878.891367579
492,6035461.113887726
494,6041498.676982953
496,6042013.310624729
498,6041183.258191136
500,6041685.19930985
502,6041085.557791096
504,6041476.26630314
506,6041331.3404779965
508,6041595.570049465
510,6041550.4048470305
512,6041424.608223655
514,6041137.170596375
516,6041286.693375231
518,6041220.817905926
520,6041249.841868836
522,6041246.708697769
524,6041252.381758485
526,6041410.144270027
528,6041513.90545728
530,6041383.856004233
532,6038038.290268091
534,6015043.7237043865
536,5960777.443305094
538,5867429.465593852
540,5730886.855252091
542,5546023.982298405
544,5310831.191739158
546,5021147.674625564
548,4690773.985926965
550,4342809.724211454
552,3989327.4372414034
554,3638024.437599099
556,3294280.9296077713
558,2963320.7403461235
560,2650651.763233998
562,2363089.237372258
564,2101851.6898712367
566,1862477.8737563286
568,1645690.143944269
570,1452488.239846434
572,1284183.0888544514
574,1142445.2449787327
576,1025983.5940367825
578,933423.6726632193
580,862171.1332196413
582,809278.6833147483
584,771084.1168277545
586,742903.3881884534
588,722212.5199335744
590,706025.3040249047
592,692047.4188019923
594,678507.3687210064
596,664251.4125046763
598,648515.1799964714
600,630316.8725131906
602,609800.0740067303
604,587114.375284098
606,562483.4515495914
608,536466.2708318667
610,509649.97812990285
612,482497.1420871222
614,455542.07522984757
616,429300.7498924233
618,404077.62436965766
620,380397.88505463203
622,358483.0365243032
624,338422.64251760795
626,320810.46981635125
628,305694.9689034847
630,292995.82633906876
632,282885.2384527009
634,275541.95430667687
636,270998.4294034861
638,269213.0578743683
640,270337.3822522791
642,274322.74243706703
644,280949.37930180435
646,290041.99473456806
648,301300.4955370648
650,314273.71062275534
652,328358.02830249973
654,342922.62118023937
656,357353.5560067408
658,371102.1746143684
660,383712.53741353354
662,394815.8949054104
664,403974.67383577407
666,410875.0889483691
668,415560.12798388355
670,418072.7151141127
672,418429.13153794466
674,416736.31672150287
676,413188.72916979634
678,408101.87776805816
680,401853.35269025934
682,394839.24244342395
684,387269.4114653916
686,379304.29922851233
688,371215.57163670217
690,363287.7298726867
692,355778.6202978199
694,348744.3526190669
696,342061.7331357949
698,335726.4754247203
700,329798.1694388236
702,324283.7632865501
704,319177.75677817065
706,314500.01654762006
708,310229.17450692656
710,306220.93557037646
712,302395.38620704215
714,298839.1645663895
716,295543.67521766375
718,292314.4549881977
720,289089.89597415854
722,286023.4274068308
724,283165.5652599244
726,280402.92803673615
728,277636.50897682115
730,274805.53933457844
732,271946.25386138057
734,269236.2556293008
736,266714.78132927127
738,264153.89699589333
740,261428.54716666095
742,258709.7118546598
744,256145.28152614651
746,253680.64944986437
748,251233.30695049177
750,248779.923264616
752,246319.852155188
754,243891.56330253024
756,241551.41743721493
758,239324.44071335954
760,237207.9361933205
762,235169.00166408776
764,233127.67996591568
766,231040.7358665068
768,229004.32853218145
770,227124.919857798
772,225344.35676969556
774,223524.86818095887
776,221650.94656555733
778,219856.1095478346
780,218226.64725564743
782,216662.70903423795
784,215040.44077357664
786,213404.70925422432
788,211908.27168425423
790,210553.12516078915
792,209032.5011423406
794,207037.01631354535
796,204540.66847282537
798,201655.40971258227
800,198437.02259173017
802,194835.40271238115
804,190797.22558072442
806,186346.54919381117
808,181549.62413583224
810,176449.24100017996
812,171027.305252967
814,165257.20796265057
816,159132.44049746907
818,152664.62692532403
820,145868.15240450046
822,138769.2759606303
824,131398.2216036931
826,123744.06271272313
828,115702.8670171141
830,107167.22455649584
832,98285.31947697593
834,89486.6165764031
836,81184.83795333163
838,73470.89727132271
840,66240.06082488582
842,59398.38160511131
844,52930.9883436784
846,46851.66433456319
848,41171.48019379176
850,35891.02127755963
852,31008.37461508748
854,26519.74263405909
856,22415.95383292649
858,18686.887172103598
860,15323.107466263378
862,12316.858520088297
864,9660.62850146834
866,7344.550489021965
868,5353.1100573520835
870,3669.988130199106
872,2293.2636915440034
874,1259.6677838172607
876,612.3466663701539
878,355.65220539278613
880,359.40093055012244
882,464.26527397944875
884,533.7740762936575
886,550.7734419504042
888,536.9167995764972
890,512.9222157758314
892,490.4749199618831
894,476.28974762368813
896,476.6593572576406
898,488.8868282226271
900,501.0182620823132
902,500.7086761324302
904,482.6269977707725
906,457.10470477002104
908,436.59462850922966
910,431.5252227481561
912,439.8383214107617
914,454.71942754939397
916,469.4581217496496
918,480.50981976661654
920,487.84037092577074
922,491.5981867613502
924,492.0564126204366
926,489.97565465458615
928,486.23558127657327
930,481.71689838599747
932,477.3243923907677
934,473.9870521192718
936,472.6349282693511
938,473.82060540392763
940,476.2329737009699
942,477.9867433236302
944,477.21182057984254
946,473.20486169191776
948,467.228234445116
950,460.73321572553573
952,455.09052351136665
954,450.5271463547381
956,446.4201399914927
958,442.1263889794996
960,437.10776186501647
962,431.4643932707639
964,425.53630643733504
966,419.66394867072347
968,414.1071444390927
970,408.84512853919415
972,403.79613312403626
974,398.87849797205416
976,394.04774013250716
978,389.3508217772889
980,384.84851232251447
982,380.6009606862132
984,376.56168996589736
986,372.45753549954424
988,367.9863254483902
990,362.84685257826607
992,356.94160838344976
994,350.62717213007795
996,344.3215035844927
998,338.4424063629075
1000,333.2586279120503
1002,328.6123423126599
1004,324.26990062173354
1006,319.997653896269
1008,315.6122270922484
1010,311.16167751184497
1012,306.76061508370714
1014,302.52365567723706
1016,298.5542389352783
1018,294.84799018738255
