wave,flux
336,297952.4888253317
338,367425.3613947912
340,476095.0204374258
342,614716.8418483998
344,730684.9723012903
346,828275.5219711642
348,961972.9305439142
350,1156125.181997881
352,1381413.2919282892
354,1615179.5922972525
356,1898681.5236317173
358,2398750.03026192
360,3440711.320435176
362,4807347.738872528
364,5740338.3585400935
366,6032102.269475381
368,6041829.811843317
370,6041412.761691626
372,6041074.24097709
374,6041495.8188533
376,6041753.768626687
378,6041266.257205111
380,6041174.511855426
382,6041316.644585016
384,6041570.4593812525
386,6041503.772535072
388,6041230.166564008
390,6041067.776710295
392,6041122.525520448
394,6041352.426832703
396,6041610.843441318
398,6041550.177007997
400,6041464.032497786
402,6041366.143731347
404,6041557.869673094
406,6041520.931566767
408,6041626.417087254
410,6041473.56670617
412,6041639.283600607
414,6040980.336281718
416,6040696.129161177
418,6041223.11597612
420,6041396.57235758
422,6041500.698235014
424,6041282.446711116
426,6038185.503572163
428,5985322.91514663
430,5819541.509197105
432,5500099.068135048
434,5011936.560586664
436,4439499.892054807
438,3881941.956674085
440,3409443.5870660734
442,3076957.447433613
444,2894298.886483756
446,2854685.343379151
448,2946819.7883885032
450,3143919.630284657
452,3408925.2556886855
454,3718457.4500838085
456,4067327.641497157
458,4438240.430060868
460,4823804.489523428
462,5206969.85841201
464,5537330.70707843
466,5776412.779668463
468,5933303.784104098
470,6015310.473294634
472,6040372.937859186
474,6041448.79644977
476,6041432.109474134
478,6041300.102605599
480,6041516.99745843
482,6041423.803518523
484,6041602.389418376
486,6041605.4784308085
488,6041630.476033473
490,6041746.277978065
492,6041397.794633042
494,6041354.969365347
496,6041573.103360801
498,6041279.069438489
500,6041519.342090469
502,6041007.437119271
504,6041111.114374857
506,6041902.172792357
508,6041228.916866295
510,6041124.8920280775
512,6041411.780137444
514,6041223.151914897
516,6041074.990514202
518,6041266.955992379
520,6023894.550518628
522,5966784.00604371
524,5857204.517417147
526,5683810.313073648
528,5440272.315289514
530,5123520.6963268295
532,4731096.694042275
534,4296241.294680061
536,3851637.4283903716
538,3422963.742180726
540,3027813.980821038
542,2676919.46941149
544,2376088.266602743
546,2128816.4211891205
548,1930749.4673042141
550,1765557.1917717522
552,1621832.5334839157
554,1491519.5015246274
556,1369996.385858299
558,1255986.1523603396
560,1149679.1165053495
562,1051749.5687912558
564,962640.6185808643
566,882619.3959049007
568,813678.5439515336
570,754672.1754885977
572,704856.9174054697
574,663506.6358328024
576,628298.9693393727
578,598186.4665397244
580,572617.6041389524
582,550824.863080309
584,531933.3157382655
586,515157.28345613123
588,500389.9227881546
590,487502.8917899676
592,476476.2222915248
594,467527.0435619358
596,460861.31707447645
598,456606.54965096846
600,455066.64130949235
602,456468.8093291971
604,460941.4525867932
606,468496.5458140706
608,479140.4172338612
610,493001.7895065941
612,509741.01980338997
614,529289.039362803
616,551845.1507641443
618,577328.7423825617
620,605656.5463184137
622,637031.8649177022
624,671686.8665505818
626,709361.3929037442
628,750300.2246252181
630,794533.7556095327
632,841422.3447745042
634,890454.2578509925
636,940903.2223926368
638,991851.3093741141
640,1042553.7358187484
642,1091651.0810833478
644,1137512.3217101141
646,1179202.5053527947
648,1215839.6229319249
650,1246404.7172378672
652,1269662.2142074052
654,1284943.8526540531
656,1292137.1964372906
658,1291160.6595115701
660,1282000.257031052
662,1264771.2125519677
664,1239924.1797603215
666,1208311.61907023
668,1171327.279606519
670,1129571.9258058323
672,1083179.0367258897
674,1033839.0295165017
676,983215.8381938495
678,931803.1871321432
680,880212.8737404067
682,829302.2156708477
684,779893.2206026148
686,732682.4619666534
688,688019.2761320985
690,646309.1408029246
692,608146.6484319412
694,573559.5103641988
696,542078.1565734855
698,513878.50991281745
700,489374.8045011268
702,468130.5349917639
704,449533.9223891706
706,433468.4009404508
708,419830.627513065
710,408248.6442424474
712,398341.48864041775
714,389797.64945543435
716,382366.0234796602
718,375878.69186106446
720,370049.7760357992
722,364415.6738336539
724,358701.46772169485
726,352907.64696324134
728,346924.4344340598
730,340462.9249751391
732,333354.16396165144
734,325631.2647725257
736,317322.59511851164
738,308417.9039542961
740,298886.9320225092
742,288663.0935948771
744,277766.55304065644
746,266508.20976799825
748,255162.41991254524
750,243544.15194809804
752,231397.66286993076
754,219053.4362710768
756,207107.34179000795
758,195635.30531057843
760,184266.18850150472
762,172970.98495947587
764,162294.18270537804
766,152660.18852324295
768,143908.75589272846
770,135777.95856245738
772,128198.06822466954
774,121194.7150888556
776,114731.0866159093
778,108693.74744761272
780,103002.73815948231
782,97704.26285265734
784,92864.3652711307
786,88476.30137563939
788,84486.15885799032
790,80817.16526530174
792,77347.87844633743
794,73965.26426181024
796,70669.12505149088
798,67513.7442219941
800,64484.78997554239
802,61440.018799012156
804,58234.868365019545
806,54832.952002830476
808,51257.02399860665
810,47564.237679276346
812,43897.89895338797
814,40409.366460353456
816,37144.696010613225
818,34054.94858407169
820,31096.5606166229
822,28275.354078773395
824,25614.38229296183
826,23132.00186888999
828,20835.91460790829
830,18731.89878855434
832,16813.06288344042
834,15058.572276595016
836,13448.493800365335
838,11980.19072435546
840,10661.50932318556
842,9499.03117724787
844,8491.085779290692
846,7633.012330815647
848,6921.860390610298
850,6361.210643182936
852,5956.18265653031
854,5697.046998796455
856,5531.732409994249
858,5400.726452838188
860,5263.497284988393
862,5125.978080351649
864,5001.062769030882
866,4896.173654444596
868,4805.612079355703
870,4721.757386201495
872,4639.390029541694
874,4559.736327097387
876,4485.093030231756
878,4417.551111321697
880,4358.487920415917
882,4309.126217109274
884,4269.913357275936
886,4237.248858284388
888,4206.215698923441
890,4172.517734863495
892,4137.730847555337
894,4106.662049560367
896,4083.9868542935396
898,4070.376237306179
900,4062.3775196918414
902,4056.354451955174
904,4049.8038192870144
906,4042.7525523449663
908,4035.570267561434
910,4028.5426245844124
912,4021.437426887447
914,4013.8252191709335
916,4005.305636005306
918,3996.3011480914415
920,3988.14662725681
922,3982.224394981295
924,3979.254209228164
926,3977.366524086624
928,3974.0593563885686
930,3966.912416604224
932,3955.4015591265907
934,3940.9083818619124
936,3924.8980962882088
938,3908.5587814749892
940,3891.7102080109808
942,3873.750588427904
944,3854.0825716731324
946,3832.4548356641717
948,3809.199039417836
950,3784.7028676860223
952,3759.315531024277
954,3732.8400052928955
956,3704.6733462260454
958,3674.202975988095
960,3640.9585503522803
962,3605.3344558842523
964,3568.0500832228454
966,3529.8253931659065
968,3491.2213292159277
970,3452.245410909534
972,3412.7848385825123
974,3372.7268393435625
976,3331.9678885246076
978,3290.427209359397
980,3248.0274597737252
982,3204.6922731840527
984,3160.5129104246935
986,3115.9370102092307
988,3071.457813696439
990,3027.567564323831
992,2984.5478134445084
994,2942.2104349624847
996,2900.3038149749086
998,2858.576477697895
1000,2816.9087915177206
1002,2775.5584403765765
1004,2734.850175709924
1006,2695.1087489532274
1008,2656.544694913633
1010,2618.8427602100137
1012,2581.5364914000706
1014,2544.1594215447903
1016,2506.3337400299674
1018,2468.5368820373633
