wave,flux
336,68746.65591641831
338,96769.99467513908
340,146866.21454611083
342,227185.5273048394
344,345379.06412472815
346,503945.44797627645
348,692385.7152668231
350,892782.2528094553
352,1090130.1030865149
354,1269959.9379240605
356,1418273.772788076
358,1525672.931703517
360,1592099.3671188746
362,1622937.5975075017
364,1631996.519791451
366,1644802.5534545577
368,1683177.6642706022
370,1739039.4049344119
372,1777309.7580473595
374,1774447.5835530062
376,1748641.8360742857
378,1748626.5299429966
380,1818618.7234843299
382,1972653.8425642878
384,2189226.65193494
386,2426885.3771850485
388,2652380.3977727126
390,2869699.4952402757
392,3110513.6240624515
394,3391801.265910881
396,3689509.7621838343
398,3961199.244156357
400,4198465.47669582
402,4433088.954460859
404,4696826.925835388
406,4988917.424695198
408,5277793.857415629
410,5527158.136672001
412,5715910.605467026
414,5846397.225007505
416,5931589.892285062
418,5984510.543420639
420,6017672.962248116
422,6033745.447582962
424,6039938.129995683
426,6041482.420882757
428,6041719.7398347305
430,6041057.469507041
432,6041258.857598377
434,6041268.178318334
436,6041042.087519208
438,6041077.48467802
440,6041346.142818831
442,6041657.772109177
444,6041296.631894681
446,6041341.3089707745
448,6041398.979414665
450,6041512.106737512
452,6041199.718501454
454,6041598.699649226
456,6041640.220270851
458,6041277.421692062
460,6042170.74440074
462,6041636.333208355
464,6041555.3460909715
466,6041261.567741485
468,6041767.451226921
470,6041057.986882842
472,6041499.483627137
474,6041592.911647759
476,6041328.021602738
478,6041269.005552829
480,6041478.863069395
482,6041588.483724662
484,6041565.353001438
486,6041377.358460914
488,6041714.028370621
490,6041401.953624278
492,6041753.516865857
494,6041431.320517479
496,6041382.549478469
498,6041282.311656453
500,6041345.685391404
502,6041683.37389964
504,6041776.509458175
506,6041664.176914847
508,6041487.73341248
510,6041682.17692267
512,6041300.173312649
514,6041367.484916136
516,6041318.66868732
518,6041015.099123619
520,6041691.605130565
522,6041375.045294527
524,6041027.377389702
526,6041419.092716106
528,6041467.781968056
530,6041705.700042845
532,6041495.843673112
534,6041330.041353111
536,6041543.683540336
538,6041304.055118232
540,6041249.564294782
542,6041213.687645307
544,6041182.682503751
546,6041550.5638481835
548,6041441.958487236
550,6041479.861690664
552,6041249.526410198
554,6041309.145570684
556,6041297.872253586
558,6041459.359981265
560,6041624.835167073
562,6041461.235149148
564,6041216.08929567
566,6041443.1158501115
568,6041749.693751474
570,6041067.378925082
572,6041366.997652196
574,6041176.018188331
576,6041328.442892667
578,6041198.503146804
580,6041426.597853054
582,6041718.416870276
584,6041220.06618948
586,6041251.564696099
588,6041525.987518344
590,6041435.37100718
592,6041594.0101039335
594,6041747.952051139
596,6041589.453634764
598,6041498.766098817
600,6041175.495055791
602,6041225.388073823
604,6041485.573672084
606,6041715.406503824
608,6041932.028367769
610,6041486.125769237
612,6041336.799698629
614,6041379.410379271
616,6040859.997682417
618,6040790.473346476
620,6041956.765873806
622,6041945.529331601
624,6039328.450116538
626,6040756.585784287
628,6042574.615870328
630,6041381.459741985
632,6041046.40330603
634,6040747.98701287
636,6040795.353693995
638,6042578.118489837
640,6042826.833739022
642,6041553.55362928
644,6041064.9066584315
646,6040670.213727231
648,6040243.875042363
650,6040619.248757731
652,6042760.003050307
654,6044282.415280303
656,6041743.629116799
658,6039912.375477799
660,6040866.052485178
662,6041031.666801958
664,6041278.583638183
666,6042687.861929267
668,6042185.049568665
670,6040464.666711131
672,6041077.255128878
674,6042563.832772575
676,6042150.888617504
678,6038010.723532603
680,6029585.408710993
682,6017449.422238193
684,6002539.008283318
686,5985428.549789241
688,5965040.880663109
690,5940902.94802652
692,5914049.115784501
694,5883646.053446004
696,5847263.173665511
698,5805831.715789091
700,5761448.393327856
702,5711474.145741586
704,5653349.3358426625
706,5591211.5932586
708,5528300.85140952
710,5461416.828279744
712,5388165.609299165
714,5309816.503998771
716,5226336.820742758
718,5134865.414047119
720,5033461.513957798
722,4921908.1894823685
724,4800471.68474031
726,4669882.590666822
728,4530272.005701728
730,4380920.322931938
732,4222840.933574459
734,4059754.300700476
736,3893749.2876437935
738,3723608.4107959047
740,3549074.081581505
742,3372841.3665426555
744,3197330.4013056965
746,3022800.189142613
748,2849601.308391836
750,2680619.005896733
752,2519211.74310533
754,2366204.884166119
756,2221183.4049215126
758,2084293.267283542
760,1956179.8646631
762,1837837.132992881
764,1730792.3603912196
766,1635595.665556653
768,1549308.56332393
770,1468703.7548748392
772,1394409.8345087275
774,1328936.846125382
776,1272483.1719035555
778,1222425.9025153639
780,1176524.438665849
782,1134366.6197331375
784,1095884.3145045536
786,1060612.3198325732
788,1027829.9989409575
790,996956.9423387889
792,967705.1809088134
794,939791.5990681492
796,912684.1183386636
798,885732.1087406692
800,858606.707795627
802,831577.16303959
804,804949.5259584683
806,778766.8915355484
808,752928.857564501
810,727363.4859520798
812,702075.0925723985
814,677079.6969527139
816,652388.1529717706
818,628006.6545204505
820,603977.470304824
822,580546.7087329817
824,558031.2232217772
826,536643.5498187629
828,516360.3106806466
830,497125.8339159101
832,478887.1196371474
834,461594.1084905547
836,445201.6898280666
838,429716.05811310397
840,415174.5027526911
842,401606.44374960195
844,388992.74656735605
846,377296.6819903644
848,366473.32116634777
850,356446.593509787
852,347133.03362112894
854,338467.06018534536
856,330434.0882400743
858,323028.55177413294
860,316241.1458332281
862,310053.4124279333
864,304445.4024887049
866,299362.11981197627
868,294664.5251676512
870,290201.3450397248
872,285881.959380674
874,281778.574341072
876,277990.4332066707
878,274583.69571407925
880,271509.7909376992
882,268695.2940979541
884,266074.08901542914
886,263618.21258163813
888,261312.11077747462
890,259142.66606109613
892,257119.7151725709
894,255265.72563684068
896,253601.68710913122
898,252109.55222999124
900,250731.0754535435
902,249406.2961269428
904,248102.1284706881
906,246845.50017158358
908,245671.46720844996
910,244604.59795135097
912,243604.77185940102
914,242607.22746660898
916,241549.07053399077
918,240420.87945336106
920,239272.52569662343
922,238156.96429757497
924,237106.46259760074
926,236072.44025969185
928,234986.56990807105
930,233782.85834836224
932,232449.4897244558
934,231029.09980162286
936,229566.71338359718
938,228097.76885875364
940,226610.37282375863
942,225078.04956549415
944,223474.5124388323
946,221788.14961232914
948,220032.07301975097
950,218221.7706017734
952,216371.87951641262
954,214484.9579947514
956,212554.58812705404
958,210574.13897576602
960,208538.6751845079
962,206453.56993975973
964,204328.07083428753
966,202171.43222815593
968,199990.67530470804
970,197785.04917749477
972,195552.1132442543
974,193289.43792965767
976,190998.40271433233
978,188689.75623326612
980,186375.66176444417
982,184068.25061721087
984,181774.1606390288
986,179488.35051222003
988,177204.2844422628
990,174915.45543742503
992,172621.43888591678
994,170335.36909394673
996,168072.213170148
998,165846.9342163824
1000,163670.6705927059
1002,161543.6148996534
1004,159464.01413906502
1006,157430.11531278124
1008,155439.9446248404
1010,153490.51185218222
1012,151578.53447944508
1014,149700.72996517632
1016,147854.78390910572
1018,146047.72133122705
