wave,flux
336,5034.629933418487
338,7159.076495443773
340,9734.378237606943
342,12862.659587549133
344,16588.248231460155
346,21204.421986032623
348,27053.49520542329
350,33917.570250348894
352,41468.30324746479
354,50180.57805631836
356,60163.94754508831
358,70880.60761769647
360,81437.49715389451
362,92132.27708526808
364,104577.10008981742
366,120712.3731008305
368,142755.7297183551
370,177138.3343215568
372,237676.78118666908
374,344477.7754648842
376,511408.5345623409
378,730999.6758170505
380,972565.173955626
382,1204000.0537722087
384,1414200.523369065
386,1614140.8940194503
388,1817154.8835780201
390,2029416.6537272702
392,2258848.114503811
394,2507790.1657401845
396,2774820.890656544
398,3049782.230859284
400,3337837.0809742343
402,3646790.401199311
404,3981590.573294309
406,4326762.08887972
408,4647899.122169113
410,4910617.132938378
412,5098532.6179282665
414,5230068.638723945
416,5349679.31190427
418,5494935.784458204
420,5662772.787622743
422,5824786.813463362
424,5943971.505062951
426,6010377.813670737
428,6036838.919162152
430,6041305.866420549
432,6041213.711756124
434,6041549.385544764
436,6041548.58369915
438,6041522.571451886
440,6041287.999412598
442,6041540.125121217
444,6042038.203534571
446,6041417.82388525
448,6041570.118004149
450,6041420.590924484
452,6041642.239392697
454,6041245.278622169
456,6041775.061312419
458,6041433.0378071945
460,6041584.157137272
462,6041407.022741396
464,6041105.925153061
466,6041257.231326681
468,6041675.719903752
470,6041577.0558065595
472,6041323.137419751
474,6041660.069145141
476,6041520.7950723525
478,6041211.790762018
480,6041260.75267874
482,6041460.068258762
484,6041256.673548167
486,6041248.7547709355
488,6041054.305874264
490,6041759.864292453
492,6041275.8058175575
494,6041578.684416488
496,6041573.261906531
498,6041649.895158311
500,6041238.533689301
502,6041433.889996329
504,6041474.471313278
506,6041526.488830876
508,6041525.0448710965
510,6041925.413107395
512,6041312.658146826
514,6040822.237907672
516,6041180.913368089
518,6041366.080437984
520,6041242.637642542
522,6041124.450485005
524,6042003.984342925
526,6041265.071007532
528,6041265.279624544
530,6041569.936297015
532,6041285.37848795
534,6041170.286517201
536,6041617.0735339625
538,6041270.636625137
540,6041355.812317956
542,6041545.192597358
544,6041494.600881829
546,6041506.91019648
548,6041270.234520586
550,6041637.725244299
552,6041654.359773447
554,6041717.080836708
556,6041520.759175086
558,6041230.326892584
560,6041444.015513604
562,6041471.854348142
564,6041756.868196449
566,6041449.143483199
568,6041631.579616837
570,6041742.938527291
572,6041339.783096014
574,6041204.195843002
576,6041575.978682114
578,6041709.198478317
580,6041387.1405132525
582,6041439.145240646
584,6041643.073564614
586,6041148.853142828
588,6041428.475024355
590,6041335.067723464
592,6041202.369469519
594,6041252.53465141
596,6041290.819020525
598,6041422.468618544
600,6041573.414370613
602,6041477.491852076
604,6041322.261952758
606,6041407.472530728
608,6041671.319447373
610,6041718.433001965
612,6041355.645694293
614,6041191.954256226
616,6041654.746415186
618,6041628.100634968
620,6040613.689919453
622,6039852.345032934
624,6040439.809664716
626,6040245.082712227
628,6040626.386242305
630,6041733.78125042
632,6040708.1854792535
634,6041057.376359364
636,6042860.074318501
638,6042480.881253174
640,6041071.378401829
642,6040414.21174139
644,6041022.663521121
646,6040951.28017511
648,6042411.240103281
650,6044090.214379831
652,6041330.608684757
654,6041252.277017595
656,6042041.573173449
658,6041603.54418597
660,6041587.235917498
662,6041374.946659623
664,6041483.994887697
666,6041443.715832851
668,6041107.989461487
670,6041563.760959763
672,6041267.206277565
674,6041163.483843482
676,6041536.128915851
678,6041346.243453491
680,6041150.289956291
682,6041410.314774397
684,6041560.064687422
686,6041447.9187860545
688,6040955.81893969
690,6041315.875338955
692,6041350.307975556
694,6041850.281893436
696,6041497.367671758
698,6041199.302168769
700,6041453.64627868
702,6041828.693192877
704,6040860.42770877
706,6041675.622792104
708,6041571.681644926
710,6041346.454989626
712,6041546.234560798
714,6041858.824615336
716,6041142.5820534965
718,6041286.403162461
720,6041703.1207177285
722,6041807.585318082
724,6041329.8607438
726,6041296.890614847
728,6041527.288726995
730,6041723.792105585
732,6041192.330811199
734,6041150.1016538385
736,6041704.398114255
738,6041255.137810724
740,6041344.973276121
742,6041402.044472554
744,6041509.896928869
746,6041611.23472158
748,6041281.529689905
750,6041392.455248062
752,6040981.1977447625
754,6041295.389267499
756,6041239.4416478425
758,6041271.659960353
760,6041533.037164191
762,6033170.558480699
764,5997309.196911797
766,5919816.184365741
768,5789128.623488824
770,5591227.92157777
772,5331562.926099856
774,5030824.995786329
776,4699258.250554136
778,4346757.545140255
780,3987299.429810042
782,3631624.3336451664
784,3286378.269654552
786,2964560.482130975
788,2677357.907088312
790,2431812.978824052
792,2227005.630354121
794,2056991.6675400746
796,1912122.286436368
798,1783069.2196949078
800,1663500.214270693
802,1548744.6415391257
804,1440089.3704584274
806,1338355.7413583586
808,1246002.4351940232
810,1164641.9993123675
812,1094313.8934356393
814,1033315.1507154639
816,979276.3012057306
818,928884.3489745458
820,880151.1850921786
822,831067.2044299131
824,781134.7456778135
826,731197.4373941015
828,682133.9307999852
830,635157.065687494
832,590767.9318637582
834,549817.9262336656
836,511926.9827578021
838,476508.58827418834
840,442988.8091633684
842,410512.7161371145
844,378885.83903410326
846,347759.8550145639
848,317145.038704723
850,286997.5341464601
852,257814.11993689087
854,229635.74166079867
856,202883.51438950063
858,177548.2583061767
860,153963.78261275878
862,132580.8515415665
864,113288.53811543316
866,96239.40874515912
868,81413.00428997858
870,68826.20859127876
872,58133.754868965356
874,49160.33286656182
876,41666.7751322839
878,35497.06635140222
880,30295.018445045593
882,25695.68578759554
884,21591.37521759164
886,17852.922836174053
888,14389.809163301048
890,11160.697668091325
892,8122.388938503005
894,5540.658797514908
896,3560.8201047046186
898,2067.8082667675035
900,1036.1379326991748
902,389.7262820249188
904,91.05201843704549
906,33.85408597934234
908,10.175341117526877
910,0.4798427012002451
912,-3.482973111878331
914,2.393407046365594
916,-5.54246237681494
918,-0.29287613119402345
920,-2.3379566926154904
922,4.289920058427215
924,0.9442159283387628
926,-2.7336637591896857
928,1.0006701908683229
930,-1.3057717257606596
932,1.5404292547943992
934,4.001179039549514
936,-1.414773894536123
938,3.248233771030033
940,0.4896997775772239
942,3.269850699677664
944,0.8757233738836303
946,1.835094323646329
948,-1.5911823412967454
950,0.22756291881490442
952,1.4645588048001232
954,3.043621082643513
956,0.027056986644400358
958,-0.10659459427895207
960,-0.7023202398106899
962,-2.0064684457895754
964,-3.0020412361544704
966,-2.2327748367148637
968,-2.2451702637504916
970,3.087313082970052
972,-1.474238603491238
974,-1.3750943045639343
976,0.09099228775895851
978,-4.359327552662422
980,0.17173412192045567
982,0.5883557203648353
984,-0.6237451035931326
986,0.24693956783995888
988,-1.1733774690472267
990,1.089032408027303
992,0.5823660453244227
994,0.22070109661222787
996,-2.4283186811864717
998,-1.410528741235163
1000,-1.602076920989911
1002,-0.0723170684905614
1004,-2.2803875418149437
1006,-0.15982876153475076
1008,-1.1915084778267833
1010,-1.9937058314243845
1012,1.598653035792643
1014,-0.6487785841223528
1016,2.324849570691117
1018,0.7091701747258704
