wave,flux
336,254.78980418594048
338,462.159488651318
340,992.7495841008804
342,1971.127678561741
344,3550.3163314424305
346,5869.87452863711
348,8700.708636117015
350,11741.65891969589
352,15034.673003813763
354,18764.462215043983
356,22941.585724577802
358,27639.620992786357
360,33192.079574329364
362,39745.56113673483
364,47066.37331480291
366,55469.120132199874
368,65548.31524564873
370,77022.6937930223
372,89440.19150185738
374,103167.2057251739
376,119906.94459410552
378,141417.30546929367
380,168857.8104175938
382,202669.9311442461
384,243918.05234818088
386,295778.89823086635
388,365562.22954091517
390,467881.47855543066
392,622404.5118800245
394,837739.0331836459
396,1108570.410275731
398,1418605.9109141282
400,1757086.7758597073
402,2110581.0789317866
404,2460043.7434826237
406,2781458.5096431174
408,3059127.6630558386
410,3291083.854851576
412,3483754.046751072
414,3648424.538794659
416,3794922.5207916037
418,3932115.5055864374
420,4068974.8326192503
422,4213942.1735716555
424,4375706.081560554
426,4560900.90802244
428,4766663.883355188
430,4980554.144500492
432,5182641.776316613
434,5359204.57725437
436,5511363.392361143
438,5644422.505619084
440,5764917.180502413
442,5871635.351696759
444,5952703.574053424
446,6004885.2934711715
448,6032261.0766802635
450,6040924.1711268
452,6041815.050612924
454,6041407.794293795
456,6041624.435930889
458,6041126.175435226
460,6041388.665976151
462,6041324.626434293
464,6041274.085060494
466,6041248.0307833785
468,6041982.890417795
470,6041302.211699641
472,6041641.017702744
474,6041336.750105923
476,6041477.53986103
478,6041220.710994998
480,6041064.079755274
482,6041158.208353407
484,6041327.046461484
486,6041710.340708103
488,6041327.418291349
490,6041386.3106069835
492,6041202.252012604
494,6041492.248374461
496,6041302.79141415
498,6041504.921757073
500,6041263.465336978
502,6041586.343091438
504,6041266.976580276
506,6041478.693189913
508,6041863.895992417
510,6041325.250936193
512,6041738.884761095
514,6041334.976435836
516,6041510.463054568
518,6041660.592100891
520,6041611.664015402
522,6041516.134296445
524,6041538.119945423
526,6041927.157545146
528,6041463.7758336235
530,6041683.308214585
532,6041581.400706212
534,6041359.785961039
536,6041111.958673513
538,6041132.454550236
540,6041043.302178398
542,6041048.827072159
544,6041198.887943891
546,6041614.748503821
548,6041323.043231829
550,6041628.465609899
552,6041572.921278431
554,6041642.20414242
556,6041551.7031674
558,6041032.876764199
560,6041479.142955653
562,6041527.980883801
564,6041353.046384268
566,6041572.881071841
568,6041111.293573698
570,6041538.70318272
572,6041292.954230082
574,6041573.302207411
576,6041596.265096228
578,6041381.691608601
580,6041197.322647012
582,6041531.32289996
584,6041787.865440216
586,6040992.321464537
588,6041409.019016323
590,6041537.596772744
592,6041651.639784063
594,6041461.864090069
596,6041099.43668103
598,6041534.938753357
600,6041553.999623981
602,6041094.522630973
604,6040950.910350329
606,6041091.35994734
608,6040877.528912142
610,6041124.786218394
612,6041657.1047645435
614,6041863.822629481
616,6041466.90722403
618,6040855.388563779
620,6040701.736988359
622,6040904.41450672
624,6041044.773649748
626,6041639.734341078
628,6041499.354936417
630,6040656.216462619
632,6041362.3013518555
634,6042355.4766810695
636,6042203.337146559
638,6041081.63087123
640,6041316.928796339
642,6041683.846106229
644,6039818.188896392
646,6038922.146204765
648,6039759.624828245
650,6040825.298506049
652,6041802.387621155
654,6042366.690992521
656,6042186.747661596
658,6041854.597561267
660,6041843.490805807
662,6042132.534047468
664,6042509.356825948
666,6042691.120849711
668,6042394.685303305
670,6041532.692774032
672,6041268.075361089
674,6041163.659703862
676,6041536.144392081
678,6041346.244544107
680,6041150.290024747
682,6041410.314778374
684,6041560.0646876395
686,6041447.918786066
688,6040955.818939689
690,6041315.875338955
692,6041350.307975556
694,6041850.281893436
696,6041497.367671758
698,6041199.302168769
700,6041453.64627868
702,6041828.693192877
704,6040860.42770877
706,6041675.622792104
708,6041571.681644926
710,6041346.454989626
712,6041546.234560798
714,6041858.824615336
716,6041142.5820534965
718,6041286.403162461
720,6041703.1207177285
722,6041807.585318082
724,6041329.8607438
726,6041296.890614847
728,6041527.288726995
730,6041723.792105585
732,6041192.330811199
734,6041150.1016538385
736,6041704.398114255
738,6041255.137810724
740,6041344.973276121
742,6041402.044472554
744,6041509.896928869
746,6041611.23472158
748,6041281.529689905
750,6041392.455248062
752,6040981.1977447625
754,6041295.389267499
756,6041239.4416478425
758,6041271.659960353
760,6041533.037164191
762,6033170.558480699
764,5997309.196911797
766,5919816.184365741
768,5789128.623488824
770,5591227.92157777
772,5331562.926099856
774,5030824.995786329
776,4699258.250554136
778,4346757.545140255
780,3987299.429810042
782,3631624.3336451664
784,3286378.269654552
786,2964560.482130975
788,2677357.907088312
790,2431812.978824052
792,2227005.630354121
794,2056991.6675400746
796,1912122.286436368
798,1783069.2196949078
800,1663500.214270693
802,1548744.6415391257
804,1440089.3704584274
806,1338355.7413583586
808,1246002.4351940232
810,1164641.9993123675
812,1094313.8934356393
814,1033315.1507154639
816,979276.3012057306
818,928884.3489745458
820,880151.1850921786
822,831067.2044299131
824,781134.7456778135
826,731197.4373941015
828,682133.9307999852
830,635157.065687494
832,590767.9318637582
834,549817.9262336656
836,511926.9827578021
838,476508.58827418834
840,442988.8091633684
842,410512.7161371145
844,378885.83903410326
846,347759.8550145639
848,317145.038704723
850,286997.5341464601
852,257814.11993689087
854,229635.74166079867
856,202883.51438950063
858,177548.2583061767
860,153963.78261275878
862,132580.8515415665
864,113288.53811543316
866,96239.40874515912
868,81413.00428997858
870,68826.20859127876
872,58133.754868965356
874,49160.33286656182
876,41666.7751322839
878,35497.06635140222
880,30295.018445045593
882,25695.68578759554
884,21591.37521759164
886,17852.922836174053
888,14389.809163301048
890,11160.697668091325
892,8122.388938503005
894,5540.658797514908
896,3560.8201047046186
898,2067.8082667675035
900,1036.1379326991748
902,389.7262820249188
904,91.05201843704549
906,33.85408597934234
908,10.175341117526877
910,0.4798427012002451
912,-3.482973111878331
914,2.393407046365594
916,-5.54246237681494
918,-0.29287613119402345
920,-2.3379566926154904
922,4.289920058427215
924,0.9442159283387628
926,-2.7336637591896857
928,1.0006701908683229
930,-1.3057717257606596
932,1.5404292547943992
934,4.001179039549514
936,-1.414773894536123
938,3.248233771030033
940,0.4896997775772239
942,3.269850699677664
944,0.8757233738836303
946,1.835094323646329
948,-1.5911823412967454
950,0.22756291881490442
952,1.4645588048001232
954,3.043621082643513
956,0.027056986644400358
958,-0.10659459427895207
960,-0.7023202398106899
962,-2.0064684457895754
964,-3.0020412361544704
966,-2.2327748367148637
968,-2.2451702637504916
970,3.087313082970052
972,-1.474238603491238
974,-1.3750943045639343
976,0.09099228775895851
978,-4.359327552662422
980,0.17173412192045567
982,0.5883557203648353
984,-0.6237451035931326
986,0.24693956783995888
988,-1.1733774690472267
990,1.089032408027303
992,0.5823660453244227
994,0.22070109661222787
996,-2.4283186811864717
998,-1.410528741235163
1000,-1.602076920989911
1002,-0.0723170684905614
1004,-2.2803875418149437
1006,-0.15982876153475076
1008,-1.1915084778267833
1010,-1.9937058314243845
1012,1.598653035792643
1014,-0.6487785841223528
1016,2.324849570691117
1018,0.7091701747258704
