wave,flux
336,4.652138041632836
338,0.11724450784445235
340,2.294476963381006
342,45.58225564744451
344,331.214302295238
346,1848.5093114324677
348,4591.465508385522
350,6901.9233767025535
352,8778.92217626078
354,12217.91540147728
356,17270.027988253983
358,22705.752776674475
360,29522.012967138966
362,37590.84931516148
364,44952.43497505627
366,52251.229384559105
368,60894.61839515841
370,70721.91869116407
372,81199.90562056236
374,92919.31365928738
376,106307.98150432577
378,119983.20683303697
380,133093.62544141544
382,147609.24030228768
384,168369.63802223065
386,198896.79268017758
388,237454.3582629483
390,284116.3320428417
392,352812.37959066476
394,452738.58954745496
396,594892.2726886021
398,788169.5188038505
400,1068505.7041644917
402,1458512.2620845842
404,1938782.502482792
406,2430067.020659923
408,2842068.2074585725
410,3134456.09256002
412,3353384.493459788
414,3608354.149910627
416,4000196.5225749514
418,4528155.466108872
420,5092906.496477708
422,5565946.244810001
424,5860123.041604635
426,5999316.310163678
428,6039165.168051482
430,6040957.841984641
432,6041418.480369565
434,6041702.108705684
436,6041456.712656582
438,6041404.517214411
440,6041494.582493444
442,6041732.715853224
444,6041347.382198062
446,6041874.512051042
448,6041560.639774658
450,6041317.874711173
452,6041349.415939461
454,6041776.171355967
456,6041020.825288815
458,6041222.159378559
460,6041345.826319694
462,6041853.195534097
464,6041188.196428885
466,6041505.875715722
468,6041204.267927055
470,6041620.168550513
472,6041021.887656689
474,6041410.156855408
476,6041226.845161114
478,6041262.023067711
480,6041340.436197264
482,6041121.933674105
484,6041396.552954092
486,6041145.426497329
488,6041376.3411714155
490,6041763.60034994
492,6041287.1904735165
494,6041439.258921907
496,6041324.929864024
498,6041244.451207904
500,6041291.49281483
502,6041549.038734728
504,6041282.124831282
506,6041794.539525753
508,6041592.765822099
510,6041735.486148776
512,6041994.035319823
514,6040973.412438043
516,6041461.615232692
518,6041397.228094231
520,6041301.236967032
522,6041704.920814769
524,6041560.2983123055
526,6041285.484380777
528,6040985.3557231305
530,6041351.711130282
532,6041343.459619472
534,6041549.00171858
536,6040968.2486338895
538,6041112.878649615
540,6041702.63962891
542,6041743.350000042
544,6041335.634541962
546,6041386.857863966
548,6041222.577423646
550,6041122.024543499
552,6041582.6390926065
554,6041399.901511545
556,6041289.556537531
558,6041230.470570101
560,6041495.942923473
562,6041937.271594694
564,6041355.270358658
566,6041324.0388696
568,6041478.727155617
570,6041675.658997176
572,6041185.090501856
574,6041256.280968194
576,6041286.935108754
578,6041607.861036305
580,6041638.746077593
582,6041336.664641009
584,6041271.239432085
586,6041063.893125693
588,6041223.59083494
590,6041177.020893756
592,6041105.740712378
594,6041247.068731523
596,6041364.766651049
598,6041286.113552584
600,6041397.268466416
602,6041522.314396947
604,6041371.136430256
606,6041318.109016702
608,6041748.070670418
610,6041568.63779333
612,6041375.377705732
614,6041387.326063983
616,6041537.096086728
618,6042592.731764771
620,6042199.257030891
622,6041246.878237076
624,6042101.671541247
626,6041345.66612323
628,6040731.548625595
630,6041804.018626565
632,6042140.890899095
634,6041665.857465846
636,6040816.686440943
638,6040284.692265529
640,6042103.913763032
642,6043433.84598596
644,6041189.865586281
646,6042467.733174155
648,6043254.944082631
650,6041345.8160632
652,6041604.977941619
654,6041391.231208922
656,6041190.033593437
658,6041513.931670171
660,6041551.33417857
662,6041377.485210495
664,6041484.487148754
666,6041443.750069138
668,6041107.991047835
670,6041563.760999641
672,6041267.206276449
674,6041163.483843256
676,6041536.128915831
678,6041346.24345349
680,6041150.289956291
682,6041410.314774397
684,6041560.064687422
686,6041447.9187860545
688,6040955.81893969
690,6041315.875338955
692,6041350.307975556
694,6041850.281893436
696,6041497.367671758
698,6041199.302168769
700,6041453.64627868
702,6041828.693192877
704,6040860.42770877
706,6041675.622792104
708,6041571.681644926
710,6041346.454989626
712,6041546.234560798
714,6041858.824615336
716,6041142.5820534965
718,6041286.403162461
720,6041703.1207177285
722,6041807.585318082
724,6041329.8607438
726,6041296.890614847
728,6041527.288726995
730,6041723.792105585
732,6041192.330811199
734,6041150.1016538385
736,6041704.398114255
738,6041255.137810724
740,6041344.973276121
742,6041402.044472554
744,6041509.896928869
746,6041611.23472158
748,6041281.529689905
750,6041392.455248062
752,6040981.1977447625
754,6041295.389267499
756,6041239.4416478425
758,6041271.659960353
760,6041533.037164191
762,6033170.558480699
764,5997309.196911797
766,5919816.184365741
768,5789128.623488824
770,5591227.92157777
772,5331562.926099856
774,5030824.995786329
776,4699258.250554136
778,4346757.545140255
780,3987299.429810042
782,3631624.3336451664
784,3286378.269654552
786,2964560.482130975
788,2677357.907088312
790,2431812.978824052
792,2227005.630354121
794,2056991.6675400746
796,1912122.286436368
798,1783069.2196949078
800,1663500.214270693
802,1548744.6415391257
804,1440089.3704584274
806,1338355.7413583586
808,1246002.4351940232
810,1164641.9993123675
812,1094313.8934356393
814,1033315.1507154639
816,979276.3012057306
818,928884.3489745458
820,880151.1850921786
822,831067.2044299131
824,781134.7456778135
826,731197.4373941015
828,682133.9307999852
830,635157.065687494
832,590767.9318637582
834,549817.9262336656
836,511926.9827578021
838,476508.58827418834
840,442988.8091633684
842,410512.7161371145
844,378885.83903410326
846,347759.8550145639
848,317145.038704723
850,286997.5341464601
852,257814.11993689087
854,229635.74166079867
856,202883.51438950063
858,177548.2583061767
860,153963.78261275878
862,132580.8515415665
864,113288.53811543316
866,96239.40874515912
868,81413.00428997858
870,68826.20859127876
872,58133.754868965356
874,49160.33286656182
876,41666.7751322839
878,35497.06635140222
880,30295.018445045593
882,25695.68578759554
884,21591.37521759164
886,17852.922836174053
888,14389.809163301048
890,11160.697668091325
892,8122.388938503005
894,5540.658797514908
896,3560.8201047046186
898,2067.8082667675035
900,1036.1379326991748
902,389.7262820249188
904,91.05201843704549
906,33.85408597934234
908,10.175341117526877
910,0.4798427012002451
912,-3.482973111878331
914,2.393407046365594
916,-5.54246237681494
918,-0.29287613119402345
920,-2.3379566926154904
922,4.289920058427215
924,0.9442159283387628
926,-2.7336637591896857
928,1.0006701908683229
930,-1.3057717257606596
932,1.5404292547943992
934,4.001179039549514
936,-1.414773894536123
938,3.248233771030033
940,0.4896997775772239
942,3.269850699677664
944,0.8757233738836303
946,1.835094323646329
948,-1.5911823412967454
950,0.22756291881490442
952,1.4645588048001232
954,3.043621082643513
956,0.027056986644400358
958,-0.10659459427895207
960,-0.7023202398106899
962,-2.0064684457895754
964,-3.0020412361544704
966,-2.2327748367148637
968,-2.2451702637504916
970,3.087313082970052
972,-1.474238603491238
974,-1.3750943045639343
976,0.09099228775895851
978,-4.359327552662422
980,0.17173412192045567
982,0.5883557203648353
984,-0.6237451035931326
986,0.24693956783995888
988,-1.1733774690472267
990,1.089032408027303
992,0.5823660453244227
994,0.22070109661222787
996,-2.4283186811864717
998,-1.410528741235163
1000,-1.602076920989911
1002,-0.0723170684905614
1004,-2.2803875418149437
1006,-0.15982876153475076
1008,-1.1915084778267833
1010,-1.9937058314243845
1012,1.598653035792643
1014,-0.6487785841223528
1016,2.324849570691117
1018,0.7091701747258704
