wave,flux
336,1.7612819128828807
338,0.6670036517786171
340,1.5547509484486906
342,31.913445277551883
344,236.3941569609267
346,850.1412664813088
348,1800.7317370530204
350,2945.6447068553935
352,4377.243043750726
354,6121.384362486993
356,8219.439408038748
358,10787.905467162935
360,14020.111249909416
362,17937.315517886273
364,22440.00853162657
366,27728.87119065682
368,34220.594077002665
370,42108.79230868412
372,51154.86568327493
374,61163.10799215508
376,71962.477500885
378,83459.56649405531
380,95660.70211458074
382,108965.99772617349
384,123963.02089997003
386,141217.93641874153
388,161282.668885186
390,185543.40374076727
392,217072.15203746394
394,260303.61472805953
396,321791.11760033265
398,410460.6304953459
400,535486.2823890417
402,699433.2912070798
404,895215.9368503351
406,1108699.4451768198
408,1327494.8794556153
410,1545784.8432347504
412,1763743.133905738
414,1982884.5050959443
416,2204157.6012828005
418,2430191.8254672084
420,2667957.9276592
422,2927774.875145633
424,3216910.1384505103
426,3538503.5447444506
428,3883170.893113954
430,4235222.436832835
432,4577144.35535799
434,4900003.565411747
436,5199002.654433866
438,5463643.039062384
440,5686498.40626209
442,5853887.6208692575
444,5959129.759063955
446,6015393.358741283
448,6038050.391867414
450,6041240.810846272
452,6041729.777089547
454,6041288.176769811
456,6041629.041826629
458,6041298.970840349
460,6041690.508504022
462,6041041.695988355
464,6041420.148665925
466,6041370.031185486
468,6041440.913463232
470,6041656.1800089
472,6041298.557461074
474,6041447.805649881
476,6041743.950970748
478,6041332.66023755
480,6041461.333060825
482,6041403.608897802
484,6041317.886193791
486,6041302.7979424
488,6041613.732921811
490,6041665.79385826
492,6041434.421464579
494,6041385.385409383
496,6041244.968594864
498,6041404.882879553
500,6041649.087949751
502,6041313.020003428
504,6041084.976035314
506,6041318.033836571
508,6041446.154337197
510,6041404.535163328
512,6041806.291205711
514,6041541.731237193
516,6041545.5394711895
518,6041378.367088522
520,6041659.97026124
522,6041735.871837255
524,6041276.247263331
526,6041135.433513355
528,6041198.056368426
530,6041352.932108639
532,6041212.537754077
534,6040959.461419731
536,6041523.989333732
538,6041537.364143216
540,6041766.484202202
542,6041578.675886061
544,6041576.466694713
546,6041385.423043133
548,6041390.125336718
550,6041563.410628321
552,6041617.154745004
554,6041617.439334771
556,6041509.770353873
558,6041179.686322708
560,6041706.265334866
562,6041892.376464386
564,6041633.485326731
566,6041398.1900481535
568,6041614.552947438
570,6041334.926084777
572,6041769.261650907
574,6041362.882150039
576,6041481.360209275
578,6041598.180995614
580,6041486.76355898
582,6041626.740581548
584,6041799.100483549
586,6041824.555075165
588,6041821.1876346795
590,6041439.0337342555
592,6041365.724930111
594,6041499.668097307
596,6041512.173588703
598,6041589.843402915
600,6041456.941199809
602,6041479.520665472
604,6041523.355628071
606,6041417.653887469
608,6041359.698844474
610,6041357.988147427
612,6041424.595689783
614,6041472.277748249
616,6041358.2754108235
618,6041162.994151026
620,6041625.8508071015
622,6041945.809449616
624,6041209.242787448
626,6041744.951093827
628,6041765.558566896
630,6040940.915436478
632,6042561.195500841
634,6042773.222514941
636,6041282.918142484
638,6041517.059405068
640,6041173.188148309
642,6040469.486736981
644,6041045.290590709
646,6040395.615675241
648,6039556.35740882
650,6041089.91242295
652,6042170.994012092
654,6042348.966126009
656,6043088.421004151
658,6041081.795548583
660,6041082.966750251
662,6041393.938340417
664,6041345.45361906
666,6041434.080420023
668,6041107.543001656
670,6041563.749736726
672,6041267.206591511
674,6041163.48390701
676,6041536.128921441
678,6041346.2434538845
680,6041150.289956316
682,6041410.314774398
684,6041560.0646874225
686,6041447.9187860545
688,6040955.81893969
690,6041315.875338955
692,6041350.307975556
694,6041850.281893436
696,6041497.367671758
698,6041199.302168769
700,6041453.64627868
702,6041828.693192877
704,6040860.42770877
706,6041675.622792104
708,6041571.681644926
710,6041346.454989626
712,6041546.234560798
714,6041858.824615336
716,6041142.5820534965
718,6041286.403162461
720,6041703.1207177285
722,6041807.585318082
724,6041329.8607438
726,6041296.890614847
728,6041527.288726995
730,6041723.792105585
732,6041192.330811199
734,6041150.1016538385
736,6041704.398114255
738,6041255.137810724
740,6041344.973276121
742,6041402.044472554
744,6041509.896928869
746,6041611.23472158
748,6041281.529689905
750,6041392.455248062
752,6040981.1977447625
754,6041295.389267499
756,6041239.4416478425
758,6041271.659960353
760,6041533.037164191
762,6033170.558480699
764,5997309.196911797
766,5919816.184365741
768,5789128.623488824
770,5591227.92157777
772,5331562.926099856
774,5030824.995786329
776,4699258.250554136
778,4346757.545140255
780,3987299.429810042
782,3631624.3336451664
784,3286378.269654552
786,2964560.482130975
788,2677357.907088312
790,2431812.978824052
792,2227005.630354121
794,2056991.6675400746
796,1912122.286436368
798,1783069.2196949078
800,1663500.214270693
802,1548744.6415391257
804,1440089.3704584274
806,1338355.7413583586
808,1246002.4351940232
810,1164641.9993123675
812,1094313.8934356393
814,1033315.1507154639
816,979276.3012057306
818,928884.3489745458
820,880151.1850921786
822,831067.2044299131
824,781134.7456778135
826,731197.4373941015
828,682133.9307999852
830,635157.065687494
832,590767.9318637582
834,549817.9262336656
836,511926.9827578021
838,476508.58827418834
840,442988.8091633684
842,410512.7161371145
844,378885.83903410326
846,347759.8550145639
848,317145.038704723
850,286997.5341464601
852,257814.11993689087
854,229635.74166079867
856,202883.51438950063
858,177548.2583061767
860,153963.78261275878
862,132580.8515415665
864,113288.53811543316
866,96239.40874515912
868,81413.00428997858
870,68826.20859127876
872,58133.754868965356
874,49160.33286656182
876,41666.7751322839
878,35497.06635140222
880,30295.018445045593
882,25695.68578759554
884,21591.37521759164
886,17852.922836174053
888,14389.809163301048
890,11160.697668091325
892,8122.388938503005
894,5540.658797514908
896,3560.8201047046186
898,2067.8082667675035
900,1036.1379326991748
902,389.7262820249188
904,91.05201843704549
906,33.85408597934234
908,10.175341117526877
910,0.4798427012002451
912,-3.482973111878331
914,2.393407046365594
916,-5.54246237681494
918,-0.29287613119402345
920,-2.3379566926154904
922,4.289920058427215
924,0.9442159283387628
926,-2.7336637591896857
928,1.0006701908683229
930,-1.3057717257606596
932,1.5404292547943992
934,4.001179039549514
936,-1.414773894536123
938,3.248233771030033
940,0.4896997775772239
942,3.269850699677664
944,0.8757233738836303
946,1.835094323646329
948,-1.5911823412967454
950,0.22756291881490442
952,1.4645588048001232
954,3.043621082643513
956,0.027056986644400358
958,-0.10659459427895207
960,-0.7023202398106899
962,-2.0064684457895754
964,-3.0020412361544704
966,-2.2327748367148637
968,-2.2451702637504916
970,3.087313082970052
972,-1.474238603491238
974,-1.3750943045639343
976,0.09099228775895851
978,-4.359327552662422
980,0.17173412192045567
982,0.5883557203648353
984,-0.6237451035931326
986,0.24693956783995888
988,-1.1733774690472267
990,1.089032408027303
992,0.5823660453244227
994,0.22070109661222787
996,-2.4283186811864717
998,-1.410528741235163
1000,-1.602076920989911
1002,-0.0723170684905614
1004,-2.2803875418149437
1006,-0.15982876153475076
1008,-1.1915084778267833
1010,-1.9937058314243845
1012,1.598653035792643
1014,-0.6487785841223528
1016,2.324849570691117
1018,0.7091701747258704
