wave,flux
336,434020.40111460467
338,587298.3804252305
340,728464.4914965682
342,837317.5827336661
344,900209.9100076236
346,916342.7028998265
348,941902.9021937952
350,1019773.6899698066
352,1111644.8884523583
354,1194609.393297717
356,1306910.5238133948
358,1464877.3594701972
360,1628073.1082902611
362,1743686.3481496174
364,1781606.8949324652
366,1750873.1573147061
368,1704541.989894576
370,1698903.3564926065
372,1737725.846579877
374,1781540.5801696714
376,1802988.4236415145
378,1812593.897388626
380,1834433.6941896635
382,1880812.3323419844
384,1957878.2524834215
386,2076645.0173557415
388,2246172.86463162
390,2457528.0803262857
392,2682650.489330301
394,2889333.1264334037
396,3059905.3025963516
398,3200490.430312673
400,3337522.3819261813
402,3505960.2367458446
404,3749321.532428817
406,4111702.1187348044
408,4595496.397527886
410,5122719.679955395
412,5579345.048957051
414,5869061.004216133
416,6003524.227188208
418,6039739.561073483
420,6041380.179584512
422,6041059.711195655
424,6041532.409885067
426,6040912.367546295
428,6041785.6333404705
430,6041118.4932844285
432,6041338.161569926
434,6041352.940363063
436,6041081.313458607
438,6041326.83349373
440,6041335.953487273
442,6041652.165529756
444,6041314.376381429
446,6041161.06951415
448,6041335.066748591
450,6041236.8014144
452,6041634.854644071
454,6041550.687764485
456,6041726.441201579
458,6041622.12959231
460,6041069.7783075785
462,6041308.813844204
464,6041667.388244838
466,6041335.805051462
468,6041427.212221715
470,6041124.964369229
472,6041282.0958250705
474,6041392.441153455
476,6042167.657585373
478,6041506.67014598
480,6041510.305540926
482,6041151.577237157
484,6041559.470419496
486,6041348.955855053
488,6041554.99401315
490,6041248.545464819
492,6041143.8537344085
494,6041264.150126747
496,6041305.16518024
498,6041281.956343794
500,6041430.713303739
502,6041611.385720974
504,6041141.373218923
506,6041620.674301812
508,6041451.294210506
510,6041817.925869281
512,6041378.272677044
514,6041402.524383227
516,6041586.28346128
518,6041496.0250546485
520,6041106.349215941
522,6041670.68127604
524,6041321.170680423
526,6041380.78354539
528,6041168.750848072
530,6041528.639633512
532,6041700.2890395215
534,6040914.349487376
536,6041288.151082617
538,6041166.077491854
540,6041766.525015945
542,6041772.922960006
544,6041675.85310179
546,6041256.099987358
548,6041385.956002538
550,6041450.063410585
552,6041352.582777345
554,6041557.802578114
556,6041703.729471903
558,6041251.3316150205
560,6041430.3644452635
562,6041337.943236253
564,6041367.157211295
566,6041781.114465558
568,6041801.120192045
570,6041843.800657467
572,6041337.462387437
574,6041364.735679175
576,6041469.42801178
578,6041783.409092774
580,6041641.062405875
582,6041011.845082333
584,6040955.506989922
586,6041392.30669511
588,6041475.505551694
590,6041317.497682403
592,6041294.852544295
594,6041257.6026106095
596,6041234.0308183115
598,6041426.132382585
600,6041202.518194459
602,6040991.961049219
604,6041514.980717527
606,6041951.6344200345
608,6041142.552714008
610,6041071.0335546825
612,6041508.248575546
614,6041734.086785221
616,6041839.254759793
618,6042277.613821344
620,6041954.558332652
622,6041413.0480537275
624,6042088.378925043
626,6042602.203501018
628,6041896.463420269
630,6040507.50758577
632,6040259.941406817
634,6041056.366786213
636,6042367.007312028
638,6043284.04642844
640,6041530.487603989
642,6040575.346380871
644,6044137.725444539
646,6043704.731316538
648,6040528.9228450805
650,6041451.281107487
652,6042258.84780129
654,6041932.406448486
656,6043024.514609185
658,6042718.407578236
660,6040621.073301804
662,6040565.834805304
664,6040933.43304324
666,6041763.50376068
668,6041268.209151773
670,6041567.788537082
672,6041267.093612439
674,6041163.461045521
676,6041536.126909564
678,6041346.243312106
680,6041150.289947418
682,6041410.314773882
684,6041560.064687395
686,6041447.918786053
688,6040955.818939689
690,6041315.875338955
692,6041350.307975556
694,6041850.281893436
696,6041497.367671758
698,6041199.302168769
700,6041453.64627868
702,6041828.693192877
704,6040860.42770877
706,6041675.622792104
708,6041571.681644926
710,6041346.454989626
712,6041546.234560798
714,6041858.824615336
716,6041142.5820534965
718,6041286.403162461
720,6041703.1207177285
722,6041807.585318082
724,6041329.8607438
726,6041296.890614847
728,6041527.288726995
730,6041723.792105585
732,6041192.330811199
734,6041150.1016538385
736,6041704.398114255
738,6041255.137810724
740,6041344.973276121
742,6041402.044472554
744,6041509.896928869
746,6041611.23472158
748,6041281.529689905
750,6041392.455248062
752,6040981.1977447625
754,6041295.389267499
756,6041239.4416478425
758,6041271.659960353
760,6041533.037164191
762,6033170.558480699
764,5997309.196911797
766,5919816.184365741
768,5789128.623488824
770,5591227.92157777
772,5331562.926099856
774,5030824.995786329
776,4699258.250554136
778,4346757.545140255
780,3987299.429810042
782,3631624.3336451664
784,3286378.269654552
786,2964560.482130975
788,2677357.907088312
790,2431812.978824052
792,2227005.630354121
794,2056991.6675400746
796,1912122.286436368
798,1783069.2196949078
800,1663500.214270693
802,1548744.6415391257
804,1440089.3704584274
806,1338355.7413583586
808,1246002.4351940232
810,1164641.9993123675
812,1094313.8934356393
814,1033315.1507154639
816,979276.3012057306
818,928884.3489745458
820,880151.1850921786
822,831067.2044299131
824,781134.7456778135
826,731197.4373941015
828,682133.9307999852
830,635157.065687494
832,590767.9318637582
834,549817.9262336656
836,511926.9827578021
838,476508.58827418834
840,442988.8091633684
842,410512.7161371145
844,378885.83903410326
846,347759.8550145639
848,317145.038704723
850,286997.5341464601
852,257814.11993689087
854,229635.74166079867
856,202883.51438950063
858,177548.2583061767
860,153963.78261275878
862,132580.8515415665
864,113288.53811543316
866,96239.40874515912
868,81413.00428997858
870,68826.20859127876
872,58133.754868965356
874,49160.33286656182
876,41666.7751322839
878,35497.06635140222
880,30295.018445045593
882,25695.68578759554
884,21591.37521759164
886,17852.922836174053
888,14389.809163301048
890,11160.697668091325
892,8122.388938503005
894,5540.658797514908
896,3560.8201047046186
898,2067.8082667675035
900,1036.1379326991748
902,389.7262820249188
904,91.05201843704549
906,33.85408597934234
908,10.175341117526877
910,0.4798427012002451
912,-3.482973111878331
914,2.393407046365594
916,-5.54246237681494
918,-0.29287613119402345
920,-2.3379566926154904
922,4.289920058427215
924,0.9442159283387628
926,-2.7336637591896857
928,1.0006701908683229
930,-1.3057717257606596
932,1.5404292547943992
934,4.001179039549514
936,-1.414773894536123
938,3.248233771030033
940,0.4896997775772239
942,3.269850699677664
944,0.8757233738836303
946,1.835094323646329
948,-1.5911823412967454
950,0.22756291881490442
952,1.4645588048001232
954,3.043621082643513
956,0.027056986644400358
958,-0.10659459427895207
960,-0.7023202398106899
962,-2.0064684457895754
964,-3.0020412361544704
966,-2.2327748367148637
968,-2.2451702637504916
970,3.087313082970052
972,-1.474238603491238
974,-1.3750943045639343
976,0.09099228775895851
978,-4.359327552662422
980,0.17173412192045567
982,0.5883557203648353
984,-0.6237451035931326
986,0.24693956783995888
988,-1.1733774690472267
990,1.089032408027303
992,0.5823660453244227
994,0.22070109661222787
996,-2.4283186811864717
998,-1.410528741235163
1000,-1.602076920989911
1002,-0.0723170684905614
1004,-2.2803875418149437
1006,-0.15982876153475076
1008,-1.1915084778267833
1010,-1.9937058314243845
1012,1.598653035792643
1014,-0.6487785841223528
1016,2.324849570691117
1018,0.7091701747258704
