wave,flux
336,3007.0961124247106
338,4024.8904073528165
340,5338.913206882847
342,6867.243424256358
344,8662.212932723396
346,10819.289440782406
348,13429.396464238585
350,16681.78177301241
352,20669.503226506396
354,25246.09756836871
356,30176.761983300945
358,35327.89411422441
360,40875.90949729348
362,47191.983729087915
364,54739.92112083168
366,64128.135983381144
368,76738.62044608012
370,96679.28429303979
372,133424.81998585098
374,201646.25538631136
376,312020.82522581884
378,457479.74981040176
380,609336.0579375883
382,735517.3815701699
384,822000.9813538172
386,879952.9666538645
388,932001.9101348018
390,997113.9671046535
392,1082774.4703577468
394,1184332.907333809
396,1293528.828717045
398,1404447.0152126108
400,1517551.679370899
402,1634761.6482169945
404,1756202.5241465436
406,1881388.8117142976
408,2011717.7908780633
410,2150122.257685541
412,2294771.56811435
414,2441944.8043805007
416,2586688.9967884533
418,2728354.4046521434
420,2872983.8468934675
422,3033687.587882438
424,3223314.833594356
426,3451787.536058095
428,3717693.83035249
430,4006141.464218538
432,4294740.560117116
434,4556560.043361531
436,4772623.118656027
438,4934397.475760385
440,5050252.636056873
442,5139183.280033774
444,5225153.332177896
446,5329504.922846778
448,5460106.558805573
450,5606871.469571936
452,5750778.310895326
454,5873879.290824776
456,5959406.884944667
458,6009934.634299507
460,6033837.747451868
462,6041281.813685215
464,6041580.977484834
466,6041240.400419012
468,6041941.600591531
470,6041122.711696764
472,6041535.6318103885
474,6041704.307363552
476,6041388.106963576
478,6041547.972295383
480,6041178.005304257
482,6041538.951714927
484,6040952.21507154
486,6041468.039856369
488,6041434.094952566
490,6041151.643810327
492,6041699.511648165
494,6041335.859023333
496,6041248.77379586
498,6041589.495920893
500,6041335.234053302
502,6041518.458137077
504,6041220.590467447
506,6041578.720013676
508,6041411.771895509
510,6041666.9030359015
512,6041422.0454660915
514,6041382.993498273
516,6041684.405419229
518,6041193.572894806
520,6041190.875212914
522,6041438.8353859475
524,6041290.77337969
526,6041736.362090937
528,6041361.722491946
530,6041582.924903763
532,6041161.888595844
534,6041494.873094436
536,6041573.275536192
538,6041497.847325812
540,6041478.574492113
542,6041683.890513839
544,6041520.918880959
546,6041239.029267585
548,6041685.192605258
550,6041410.536392561
552,6040977.664166769
554,6041130.996926207
556,6041218.220304304
558,6041278.114152958
560,6041251.961210933
562,6041525.954443952
564,6041611.026976593
566,6041466.092352756
568,6041488.03237823
570,6041467.124188264
572,6041258.84773229
574,6040731.328030795
576,6041162.86587544
578,6041700.847828227
580,6041877.298615751
582,6041575.408566171
584,6041097.702795885
586,6041289.449151892
588,6041160.053048698
590,6041435.730954237
592,6041151.303788624
594,6040982.91465027
596,6041504.27286869
598,6041563.453018495
600,6041342.068716888
602,6041553.782190043
604,6041680.094728674
606,6041433.164924032
608,6041423.939096893
610,6041508.38904559
612,6041307.524187973
614,6041122.656702318
616,6041413.208615664
618,6041688.612926413
620,6041618.513053165
622,6041342.823555533
624,6041108.205982232
626,6040722.603333294
628,6041102.678865663
630,6041726.131933729
632,6040472.259824186
634,6040665.060695013
636,6042248.092438013
638,6041919.634376365
640,6041480.531456213
642,6041658.562553394
644,6041725.843383957
646,6041675.54325067
648,6041639.427222405
650,6041398.7433946375
652,6041705.664822509
654,6041397.689642745
656,6041151.217033307
658,6041511.431230005
660,6041551.262288851
662,6041377.486709205
664,6041484.487439377
666,6041443.750089349
668,6041107.991048771
670,6041563.760999665
672,6041267.2062764475
674,6041163.483843256
676,6041536.128915831
678,6041346.24345349
680,6041150.289956291
682,6041410.314774397
684,6041560.064687422
686,6041447.9187860545
688,6040955.81893969
690,6041315.875338955
692,6041350.307975556
694,6041850.281893436
696,6041497.367671758
698,6041199.302168769
700,6041453.64627868
702,6041828.693192877
704,6040860.42770877
706,6041675.622792104
708,6041571.681644926
710,6041346.454989626
712,6041546.234560798
714,6041858.824615336
716,6041142.5820534965
718,6041286.403162461
720,6041703.1207177285
722,6041807.585318082
724,6041329.8607438
726,6041296.890614847
728,6041527.288726995
730,6041723.792105585
732,6041192.330811199
734,6041150.1016538385
736,6041704.398114255
738,6041255.137810724
740,6041344.973276121
742,6041402.044472554
744,6041509.896928869
746,6041611.23472158
748,6041281.529689905
750,6041392.455248062
752,6040981.1977447625
754,6041295.389267499
756,6041239.4416478425
758,6041271.659960353
760,6041533.037164191
762,6033170.558480699
764,5997309.196911797
766,5919816.184365741
768,5789128.623488824
770,5591227.92157777
772,5331562.926099856
774,5030824.995786329
776,4699258.250554136
778,4346757.545140255
780,3987299.429810042
782,3631624.3336451664
784,3286378.269654552
786,2964560.482130975
788,2677357.907088312
790,2431812.978824052
792,2227005.630354121
794,2056991.6675400746
796,1912122.286436368
798,1783069.2196949078
800,1663500.214270693
802,1548744.6415391257
804,1440089.3704584274
806,1338355.7413583586
808,1246002.4351940232
810,1164641.9993123675
812,1094313.8934356393
814,1033315.1507154639
816,979276.3012057306
818,928884.3489745458
820,880151.1850921786
822,831067.2044299131
824,781134.7456778135
826,731197.4373941015
828,682133.9307999852
830,635157.065687494
832,590767.9318637582
834,549817.9262336656
836,511926.9827578021
838,476508.58827418834
840,442988.8091633684
842,410512.7161371145
844,378885.83903410326
846,347759.8550145639
848,317145.038704723
850,286997.5341464601
852,257814.11993689087
854,229635.74166079867
856,202883.51438950063
858,177548.2583061767
860,153963.78261275878
862,132580.8515415665
864,113288.53811543316
866,96239.40874515912
868,81413.00428997858
870,68826.20859127876
872,58133.754868965356
874,49160.33286656182
876,41666.7751322839
878,35497.06635140222
880,30295.018445045593
882,25695.68578759554
884,21591.37521759164
886,17852.922836174053
888,14389.809163301048
890,11160.697668091325
892,8122.388938503005
894,5540.658797514908
896,3560.8201047046186
898,2067.8082667675035
900,1036.1379326991748
902,389.7262820249188
904,91.05201843704549
906,33.85408597934234
908,10.175341117526877
910,0.4798427012002451
912,-3.482973111878331
914,2.393407046365594
916,-5.54246237681494
918,-0.29287613119402345
920,-2.3379566926154904
922,4.289920058427215
924,0.9442159283387628
926,-2.7336637591896857
928,1.0006701908683229
930,-1.3057717257606596
932,1.5404292547943992
934,4.001179039549514
936,-1.414773894536123
938,3.248233771030033
940,0.4896997775772239
942,3.269850699677664
944,0.8757233738836303
946,1.835094323646329
948,-1.5911823412967454
950,0.22756291881490442
952,1.4645588048001232
954,3.043621082643513
956,0.027056986644400358
958,-0.10659459427895207
960,-0.7023202398106899
962,-2.0064684457895754
964,-3.0020412361544704
966,-2.2327748367148637
968,-2.2451702637504916
970,3.087313082970052
972,-1.474238603491238
974,-1.3750943045639343
976,0.09099228775895851
978,-4.359327552662422
980,0.17173412192045567
982,0.5883557203648353
984,-0.6237451035931326
986,0.24693956783995888
988,-1.1733774690472267
990,1.089032408027303
992,0.5823660453244227
994,0.22070109661222787
996,-2.4283186811864717
998,-1.410528741235163
1000,-1.602076920989911
1002,-0.0723170684905614
1004,-2.2803875418149437
1006,-0.15982876153475076
1008,-1.1915084778267833
1010,-1.9937058314243845
1012,1.598653035792643
1014,-0.6487785841223528
1016,2.324849570691117
1018,0.7091701747258704
