wave,flux
336,200290.6107407054
338,223153.60128486194
340,250411.5355058871
342,272365.92798977584
344,286702.94790473883
346,298125.9033286902
348,305944.9504199493
350,314987.905953976
352,336324.61465153185
354,380806.83429414936
356,451182.21897579683
358,536115.0278297743
360,617411.8372873209
362,685280.5150765316
364,752160.2088891129
366,854020.7748549436
368,1015020.0159561068
370,1193413.9325245745
372,1293937.9214899398
374,1261834.7943389039
376,1145104.3038385254
378,1041418.9184978437
380,1006216.0456006662
382,1027629.3020155812
384,1065125.2598859644
386,1091124.660940013
388,1105801.525268173
390,1129502.993830095
392,1186180.8998052597
394,1280271.853366526
396,1399160.4162171406
398,1523709.7183727408
400,1653258.7876012383
402,1798513.9340882828
404,1972489.476234209
406,2175504.5130018587
408,2394370.384356359
410,2605244.236316881
412,2779676.2052671476
414,2897634.333568377
416,2957650.354560858
418,2980080.207579856
420,3002364.500076203
422,3063177.703262194
424,3187252.787991802
426,3378208.5516276998
428,3615208.9374718172
430,3863689.053839347
432,4091722.3427824685
434,4287381.950770572
436,4464974.702153245
438,4651307.375176271
440,4868237.118304089
442,5117780.526993528
444,5376267.99494512
446,5611597.155673468
448,5797239.169248383
450,5923546.078968593
452,5994417.21503956
454,6027554.986278369
456,6039359.263886409
458,6041631.186306934
460,6041419.801814797
462,6041412.985345499
464,6041438.413451925
466,6041717.555971882
468,6041266.547972866
470,6041171.945123866
472,6041471.858282266
474,6041723.820018613
476,6041475.371757406
478,6041432.697252213
480,6041451.682997275
482,6041379.814378935
484,6041251.656625786
486,6041762.410413711
488,6041564.22202626
490,6041431.141034838
492,6041648.734356514
494,6041427.125197659
496,6041413.064366978
498,6041302.908199548
500,6041286.075518439
502,6041261.374473163
504,6041355.0371287465
506,6041396.964505055
508,6041543.42644422
510,6041750.91079427
512,6041244.657403855
514,6041367.409598084
516,6041113.667383032
518,6041331.380873231
520,6041332.61448067
522,6041233.44946845
524,6041413.030372898
526,6040991.601252721
528,6041289.420048765
530,6041680.832345504
532,6041470.230166129
534,6041563.816211921
536,6041692.234384092
538,6041204.01690876
540,6041206.626761578
542,6041354.848521846
544,6041749.58585647
546,6041427.687008417
548,6041339.747906677
550,6041542.918472664
552,6041408.216174679
554,6041562.209988754
556,6041308.335374396
558,6041159.294700695
560,6041462.174293937
562,6041575.826154809
564,6041646.566502605
566,6041464.175663877
568,6041065.50153165
570,6041437.464327546
572,6041336.411125107
574,6041417.845845656
576,6041576.960380527
578,6041457.3019518
580,6041289.564085403
582,6041477.907077116
584,6041650.404583451
586,6041319.895840368
588,6041300.788913186
590,6041183.541473817
592,6040990.826653904
594,6040941.464690705
596,6041127.624619234
598,6041410.334610142
600,6041449.657831809
602,6041674.01749484
604,6041723.1125714695
606,6041549.215139419
608,6041653.231788801
610,6041434.412188693
612,6041348.854041687
614,6041528.410032714
616,6041461.417974116
618,6040918.271101943
620,6040541.255253788
622,6041131.808419705
624,6042293.745695342
626,6041590.55722869
628,6041281.153432024
630,6042218.032179381
632,6041158.496978286
634,6040779.205104571
636,6041647.525032063
638,6041635.77060584
640,6042115.722970456
642,6043092.779340042
644,6043039.6608932465
646,6041058.099469323
648,6039858.861832864
650,6042366.2405817015
652,6044013.988089036
654,6043240.101293389
656,6042267.007748499
658,6042211.938507206
660,6042740.8780670585
662,6042383.521418529
664,6041842.216501771
666,6042055.635000911
668,6042224.24677348
670,6041534.334606491
672,6041268.029433413
674,6041163.650410326
676,6041536.143574221
678,6041346.244486473
680,6041150.290021131
682,6041410.314778165
684,6041560.064687629
686,6041447.918786065
688,6040955.818939689
690,6041315.875338955
692,6041350.307975556
694,6041850.281893436
696,6041497.367671758
698,6041199.302168769
700,6041453.64627868
702,6041828.693192877
704,6040860.42770877
706,6041675.622792104
708,6041571.681644926
710,6041346.454989626
712,6041546.234560798
714,6041858.824615336
716,6041142.5820534965
718,6041286.403162461
720,6041703.1207177285
722,6041807.585318082
724,6041329.8607438
726,6041296.890614847
728,6041527.288726995
730,6041723.792105585
732,6041192.330811199
734,6041150.1016538385
736,6041704.398114255
738,6041255.137810724
740,6041344.973276121
742,6041402.044472554
744,6041509.896928869
746,6041611.23472158
748,6041281.529689905
750,6041392.455248062
752,6040981.1977447625
754,6041295.389267499
756,6041239.4416478425
758,6041271.659960353
760,6041533.037164191
762,6033170.558480699
764,5997309.196911797
766,5919816.184365741
768,5789128.623488824
770,5591227.92157777
772,5331562.926099856
774,5030824.995786329
776,4699258.250554136
778,4346757.545140255
780,3987299.429810042
782,3631624.3336451664
784,3286378.269654552
786,2964560.482130975
788,2677357.907088312
790,2431812.978824052
792,2227005.630354121
794,2056991.6675400746
796,1912122.286436368
798,1783069.2196949078
800,1663500.214270693
802,1548744.6415391257
804,1440089.3704584274
806,1338355.7413583586
808,1246002.4351940232
810,1164641.9993123675
812,1094313.8934356393
814,1033315.1507154639
816,979276.3012057306
818,928884.3489745458
820,880151.1850921786
822,831067.2044299131
824,781134.7456778135
826,731197.4373941015
828,682133.9307999852
830,635157.065687494
832,590767.9318637582
834,549817.9262336656
836,511926.9827578021
838,476508.58827418834
840,442988.8091633684
842,410512.7161371145
844,378885.83903410326
846,347759.8550145639
848,317145.038704723
850,286997.5341464601
852,257814.11993689087
854,229635.74166079867
856,202883.51438950063
858,177548.2583061767
860,153963.78261275878
862,132580.8515415665
864,113288.53811543316
866,96239.40874515912
868,81413.00428997858
870,68826.20859127876
872,58133.754868965356
874,49160.33286656182
876,41666.7751322839
878,35497.06635140222
880,30295.018445045593
882,25695.68578759554
884,21591.37521759164
886,17852.922836174053
888,14389.809163301048
890,11160.697668091325
892,8122.388938503005
894,5540.658797514908
896,3560.8201047046186
898,2067.8082667675035
900,1036.1379326991748
902,389.7262820249188
904,91.05201843704549
906,33.85408597934234
908,10.175341117526877
910,0.4798427012002451
912,-3.482973111878331
914,2.393407046365594
916,-5.54246237681494
918,-0.29287613119402345
920,-2.3379566926154904
922,4.289920058427215
924,0.9442159283387628
926,-2.7336637591896857
928,1.0006701908683229
930,-1.3057717257606596
932,1.5404292547943992
934,4.001179039549514
936,-1.414773894536123
938,3.248233771030033
940,0.4896997775772239
942,3.269850699677664
944,0.8757233738836303
946,1.835094323646329
948,-1.5911823412967454
950,0.22756291881490442
952,1.4645588048001232
954,3.043621082643513
956,0.027056986644400358
958,-0.10659459427895207
960,-0.7023202398106899
962,-2.0064684457895754
964,-3.0020412361544704
966,-2.2327748367148637
968,-2.2451702637504916
970,3.087313082970052
972,-1.474238603491238
974,-1.3750943045639343
976,0.09099228775895851
978,-4.359327552662422
980,0.17173412192045567
982,0.5883557203648353
984,-0.6237451035931326
986,0.24693956783995888
988,-1.1733774690472267
990,1.089032408027303
992,0.5823660453244227
994,0.22070109661222787
996,-2.4283186811864717
998,-1.410528741235163
1000,-1.602076920989911
1002,-0.0723170684905614
1004,-2.2803875418149437
1006,-0.15982876153475076
1008,-1.1915084778267833
1010,-1.9937058314243845
1012,1.598653035792643
1014,-0.6487785841223528
1016,2.324849570691117
1018,0.7091701747258704
