wave,flux
336,2.1235605117423404
338,221.97418387000883
340,768.9572234662791
342,1171.3458933701786
344,1319.6957675914298
346,1458.931551510294
348,1606.9182936988968
350,1780.9319497591027
352,1976.64661636994
354,2198.8326637400564
356,2487.7534669327338
358,3849.9588465295574
360,7533.801703168678
362,12248.663389963534
364,15316.929715831277
366,16817.916101595034
368,17984.579023021975
370,18996.593874973565
372,19996.429154212965
374,21402.28055349691
376,23545.856241150075
378,26820.6098000758
380,31839.15506344772
382,39907.71899779952
384,57545.245817908915
386,97091.72525035287
388,169141.0756873516
390,276034.234443535
392,419603.2895396006
394,570309.4424635754
396,686376.4720452237
398,726361.622045249
400,707159.3312427714
402,666170.6494743869
404,639846.2946890171
406,636725.9304540794
408,654434.0463973406
410,691065.5115530775
412,745145.5340247825
414,815661.015172803
416,906218.9232532991
418,1034840.1745011703
420,1242770.3176728755
422,1585530.2126676769
424,2102304.9380796365
426,2776404.6515793176
428,3511788.807419068
430,4145676.832170979
432,4513376.348703861
434,4520368.436891668
436,4190490.0706296125
438,3650425.47633147
440,3063029.3531284365
442,2559392.43766311
444,2202534.080868212
446,1993948.9678685495
448,1904439.2803329641
450,1902270.7423063032
452,1966934.8524636093
454,2112566.579932048
456,2366997.1195998583
458,2750035.642287732
460,3266277.932946572
462,3880611.1916556526
464,4503815.680469343
466,5065010.23860642
468,5502246.573083522
470,5790001.837815053
472,5947810.415396401
474,6020070.602647728
476,6040858.636794211
478,6041814.091321408
480,6041182.809217779
482,6041015.546289541
484,6041422.703607884
486,6041161.97562036
488,6041139.450055971
490,6041557.8045158
492,6041396.6459303005
494,6041266.019024005
496,6041220.237688899
498,6041740.311067111
500,6040991.099345962
502,6041213.49123642
504,6041553.475322495
506,6041316.978232403
508,6041363.477476067
510,6041582.022472936
512,6041339.522339515
514,6041738.485751129
516,6041279.824830229
518,6041767.382240594
520,6041743.834428916
522,6041374.542671019
524,6041164.955737137
526,6041475.6514867535
528,6041738.431611782
530,6041372.14870053
532,6037480.280889624
534,6025223.286229552
536,5996945.064469716
538,5947030.960401296
540,5870512.524837323
542,5765125.602588947
544,5634367.74907716
546,5490294.118279298
548,5353411.352470404
550,5237123.159688878
552,5152331.697822094
554,5109495.23109875
556,5115354.422209457
558,5171556.529647241
560,5272698.14568733
562,5402715.25276268
564,5536796.431142228
566,5661343.311834486
568,5774260.447264467
570,5869508.108505672
572,5944239.16197733
574,5996139.0563065605
576,6027196.53008159
578,6039901.974252322
580,6041903.458746671
582,6041630.495186725
584,6041521.879031743
586,6041016.816494876
588,6041360.828929944
590,6041268.719134427
592,6041183.851639376
594,6041379.281567554
596,6041596.137355901
598,6041662.78624325
600,6041170.821602957
602,6041041.537538766
604,6041360.610582484
606,6041459.101028516
608,6041181.080323374
610,6041431.664841419
612,6041499.815226472
614,6041445.510076698
616,6041844.912480961
618,6041849.045902581
620,6041424.477692647
622,6041047.7311359905
624,6041126.724322482
626,6041490.277341634
628,6041473.897690652
630,6041130.330597733
632,6041334.724660827
634,6040950.781909046
636,6040652.741635989
638,6041948.889313068
640,6041742.78527898
642,6041228.824492094
644,6043216.931996422
646,6043532.163079139
648,6041700.848527287
650,6040604.515643871
652,6041532.970720603
654,6042965.188563607
656,6042312.6696486855
658,6041831.470554886
660,6042004.075190173
662,6040206.92484163
664,6039826.804138156
666,6042942.008319234
668,6042781.656866244
670,6039519.132236251
672,6039232.637108622
674,6041479.843361747
676,6043646.455450158
678,6043499.177477066
680,6041769.266932983
682,6041435.709872028
684,6041851.062381927
686,6041514.792437162
688,6041014.560760747
690,6041318.862483813
692,6041350.467224394
694,6041850.291629897
696,6041497.368405377
698,6041199.302235504
700,6041453.646285392
702,6041828.69319357
704,6040860.427708842
706,6041675.622792113
708,6041571.681644927
710,6041346.454989626
712,6041546.234560798
714,6041858.824615336
716,6041142.5820534965
718,6041286.403162461
720,6041703.1207177285
722,6041807.585318082
724,6041329.8607438
726,6041296.890614847
728,6041527.288726995
730,6041723.792105585
732,6041192.330811199
734,6041150.1016538385
736,6041704.398114255
738,6041255.137810724
740,6041344.973276121
742,6041402.044472554
744,6041509.896928869
746,6041611.23472158
748,6041281.529689905
750,6041392.455248062
752,6040981.1977447625
754,6041295.389267499
756,6041239.4416478425
758,6041271.659960353
760,6041533.037164191
762,6033170.558480699
764,5997309.196911797
766,5919816.184365741
768,5789128.623488824
770,5591227.92157777
772,5331562.926099856
774,5030824.995786329
776,4699258.250554136
778,4346757.545140255
780,3987299.429810042
782,3631624.3336451664
784,3286378.269654552
786,2964560.482130975
788,2677357.907088312
790,2431812.978824052
792,2227005.630354121
794,2056991.6675400746
796,1912122.286436368
798,1783069.2196949078
800,1663500.214270693
802,1548744.6415391257
804,1440089.3704584274
806,1338355.7413583586
808,1246002.4351940232
810,1164641.9993123675
812,1094313.8934356393
814,1033315.1507154639
816,979276.3012057306
818,928884.3489745458
820,880151.1850921786
822,831067.2044299131
824,781134.7456778135
826,731197.4373941015
828,682133.9307999852
830,635157.065687494
832,590767.9318637582
834,549817.9262336656
836,511926.9827578021
838,476508.58827418834
840,442988.8091633684
842,410512.7161371145
844,378885.83903410326
846,347759.8550145639
848,317145.038704723
850,286997.5341464601
852,257814.11993689087
854,229635.74166079867
856,202883.51438950063
858,177548.2583061767
860,153963.78261275878
862,132580.8515415665
864,113288.53811543316
866,96239.40874515912
868,81413.00428997858
870,68826.20859127876
872,58133.754868965356
874,49160.33286656182
876,41666.7751322839
878,35497.06635140222
880,30295.018445045593
882,25695.68578759554
884,21591.37521759164
886,17852.922836174053
888,14389.809163301048
890,11160.697668091325
892,8122.388938503005
894,5540.658797514908
896,3560.8201047046186
898,2067.8082667675035
900,1036.1379326991748
902,389.7262820249188
904,91.05201843704549
906,33.85408597934234
908,10.175341117526877
910,0.4798427012002451
912,-3.482973111878331
914,2.393407046365594
916,-5.54246237681494
918,-0.29287613119402345
920,-2.3379566926154904
922,4.289920058427215
924,0.9442159283387628
926,-2.7336637591896857
928,1.0006701908683229
930,-1.3057717257606596
932,1.5404292547943992
934,4.001179039549514
936,-1.414773894536123
938,3.248233771030033
940,0.4896997775772239
942,3.269850699677664
944,0.8757233738836303
946,1.835094323646329
948,-1.5911823412967454
950,0.22756291881490442
952,1.4645588048001232
954,3.043621082643513
956,0.027056986644400358
958,-0.10659459427895207
960,-0.7023202398106899
962,-2.0064684457895754
964,-3.0020412361544704
966,-2.2327748367148637
968,-2.2451702637504916
970,3.087313082970052
972,-1.474238603491238
974,-1.3750943045639343
976,0.09099228775895851
978,-4.359327552662422
980,0.17173412192045567
982,0.5883557203648353
984,-0.6237451035931326
986,0.24693956783995888
988,-1.1733774690472267
990,1.089032408027303
992,0.5823660453244227
994,0.22070109661222787
996,-2.4283186811864717
998,-1.410528741235163
1000,-1.602076920989911
1002,-0.0723170684905614
1004,-2.2803875418149437
1006,-0.15982876153475076
1008,-1.1915084778267833
1010,-1.9937058314243845
1012,1.598653035792643
1014,-0.6487785841223528
1016,2.324849570691117
1018,0.7091701747258704
