wave,flux
336,3500.364265771226
338,4726.47790172789
340,6161.167423878515
342,8010.297065333311
344,10287.92543299444
346,12895.97285605845
348,16008.824050915087
350,19885.085401396373
352,24412.44121786491
354,29629.434233686265
356,35493.91824745322
358,41713.89417193854
360,48249.03982290137
362,55305.73872302668
364,63367.39803791967
366,73440.79243881811
368,87777.90127459246
370,111406.54555675891
372,155414.78486999436
374,235465.32717965607
376,359297.75704655296
378,514929.249597098
380,675194.3611828919
382,817664.5735062427
384,936852.3091878549
386,1038911.4562083118
388,1129383.8845988018
390,1213045.7417496599
392,1300902.7185698024
394,1408252.2980830616
396,1543448.5942394112
398,1699940.3471804173
400,1862709.0231612786
402,2016795.0790800522
404,2157801.286708554
406,2291918.841613338
408,2429236.8522135196
410,2572194.7514724825
412,2715020.3589401655
414,2850774.6549261515
416,2986320.161223181
418,3135503.2740253294
420,3312328.9604767906
422,3518996.7700496055
424,3745151.923877796
426,3974297.457858325
428,4188064.0925442297
430,4372392.05218223
432,4517779.570803972
434,4629174.951334038
436,4720416.364672006
438,4817177.64330291
440,4941613.7597222775
442,5110187.984939701
444,5313202.693354213
446,5526820.142223087
448,5723741.988285785
450,5873496.3322205525
452,5968847.84710488
454,6019375.486017388
456,6038510.365124056
458,6041103.339123724
460,6041391.890432839
462,6041215.694116408
464,6041641.429913989
466,6041508.372292053
468,6041399.1339262985
470,6041623.282720315
472,6041441.201376867
474,6041395.712586707
476,6041608.922846407
478,6041581.478800886
480,6041468.637967825
482,6041607.621875536
484,6041518.264462974
486,6041458.910767454
488,6041306.515171404
490,6041519.095920008
492,6041243.388052104
494,6041359.02815532
496,6041973.26283179
498,6041102.0808577575
500,6041699.88626301
502,6041472.474729176
504,6041413.635071195
506,6041379.809180953
508,6041472.14361329
510,6041255.015926194
512,6041751.095312732
514,6041453.098694714
516,6040756.358097863
518,6041628.506383946
520,6041184.8458886
522,6041543.513642184
524,6041639.76974185
526,6041260.864209935
528,6040916.095672456
530,6041598.055117109
532,6041726.406232338
534,6041599.275877335
536,6041499.038714655
538,6041331.146717923
540,6041473.047340458
542,6041902.1241251845
544,6041169.321959881
546,6041106.833395408
548,6041426.475895624
550,6041400.390806456
552,6041377.636297152
554,6041663.17886582
556,6041551.543739655
558,6041457.193818856
560,6041503.412504207
562,6041335.248973949
564,6041200.3113875585
566,6041524.951584481
568,6041574.2128217565
570,6041248.133727706
572,6041304.455908306
574,6041528.077745866
576,6041370.992512337
578,6041225.196926624
580,6041267.052259901
582,6041211.603553015
584,6041281.310362299
586,6041607.661065138
588,6041348.964527385
590,6041755.420760783
592,6041216.755068635
594,6040795.70048206
596,6041114.351669615
598,6040812.977478688
600,6041829.459728349
602,6041787.84367631
604,6041085.94391325
606,6041064.429274933
608,6041316.4323949665
610,6041545.145360792
612,6041691.748780017
614,6041494.568531954
616,6040973.067673276
618,6041079.291587174
620,6041899.035075381
622,6042705.440084713
624,6042417.205312638
626,6040584.896497645
628,6040342.170286253
630,6042300.939998313
632,6042273.945910441
634,6041239.344302754
636,6040786.017127873
638,6041297.775513822
640,6042322.82038091
642,6041976.2252027765
644,6038836.029735206
646,6036563.627884969
648,6041424.958568373
650,6041318.48052992
652,6041731.914959064
654,6041397.70046361
656,6041151.160425597
658,6041511.427583517
660,6041551.262184011
662,6041377.486711392
664,6041484.4874398
666,6041443.750089379
668,6041107.991048774
670,6041563.760999665
672,6041267.2062764475
674,6041163.483843256
676,6041536.128915831
678,6041346.24345349
680,6041150.289956291
682,6041410.314774397
684,6041560.064687422
686,6041447.9187860545
688,6040955.81893969
690,6041315.875338955
692,6041350.307975556
694,6041850.281893436
696,6041497.367671758
698,6041199.302168769
700,6041453.64627868
702,6041828.693192877
704,6040860.42770877
706,6041675.622792104
708,6041571.681644926
710,6041346.454989626
712,6041546.234560798
714,6041858.824615336
716,6041142.5820534965
718,6041286.403162461
720,6041703.1207177285
722,6041807.585318082
724,6041329.8607438
726,6041296.890614847
728,6041527.288726995
730,6041723.792105585
732,6041192.330811199
734,6041150.1016538385
736,6041704.398114255
738,6041255.137810724
740,6041344.973276121
742,6041402.044472554
744,6041509.896928869
746,6041611.23472158
748,6041281.529689905
750,6041392.455248062
752,6040981.1977447625
754,6041295.389267499
756,6041239.4416478425
758,6041271.659960353
760,6041533.037164191
762,6033170.558480699
764,5997309.196911797
766,5919816.184365741
768,5789128.623488824
770,5591227.92157777
772,5331562.926099856
774,5030824.995786329
776,4699258.250554136
778,4346757.545140255
780,3987299.429810042
782,3631624.3336451664
784,3286378.269654552
786,2964560.482130975
788,2677357.907088312
790,2431812.978824052
792,2227005.630354121
794,2056991.6675400746
796,1912122.286436368
798,1783069.2196949078
800,1663500.214270693
802,1548744.6415391257
804,1440089.3704584274
806,1338355.7413583586
808,1246002.4351940232
810,1164641.9993123675
812,1094313.8934356393
814,1033315.1507154639
816,979276.3012057306
818,928884.3489745458
820,880151.1850921786
822,831067.2044299131
824,781134.7456778135
826,731197.4373941015
828,682133.9307999852
830,635157.065687494
832,590767.9318637582
834,549817.9262336656
836,511926.9827578021
838,476508.58827418834
840,442988.8091633684
842,410512.7161371145
844,378885.83903410326
846,347759.8550145639
848,317145.038704723
850,286997.5341464601
852,257814.11993689087
854,229635.74166079867
856,202883.51438950063
858,177548.2583061767
860,153963.78261275878
862,132580.8515415665
864,113288.53811543316
866,96239.40874515912
868,81413.00428997858
870,68826.20859127876
872,58133.754868965356
874,49160.33286656182
876,41666.7751322839
878,35497.06635140222
880,30295.018445045593
882,25695.68578759554
884,21591.37521759164
886,17852.922836174053
888,14389.809163301048
890,11160.697668091325
892,8122.388938503005
894,5540.658797514908
896,3560.8201047046186
898,2067.8082667675035
900,1036.1379326991748
902,389.7262820249188
904,91.05201843704549
906,33.85408597934234
908,10.175341117526877
910,0.4798427012002451
912,-3.482973111878331
914,2.393407046365594
916,-5.54246237681494
918,-0.29287613119402345
920,-2.3379566926154904
922,4.289920058427215
924,0.9442159283387628
926,-2.7336637591896857
928,1.0006701908683229
930,-1.3057717257606596
932,1.5404292547943992
934,4.001179039549514
936,-1.414773894536123
938,3.248233771030033
940,0.4896997775772239
942,3.269850699677664
944,0.8757233738836303
946,1.835094323646329
948,-1.5911823412967454
950,0.22756291881490442
952,1.4645588048001232
954,3.043621082643513
956,0.027056986644400358
958,-0.10659459427895207
960,-0.7023202398106899
962,-2.0064684457895754
964,-3.0020412361544704
966,-2.2327748367148637
968,-2.2451702637504916
970,3.087313082970052
972,-1.474238603491238
974,-1.3750943045639343
976,0.09099228775895851
978,-4.359327552662422
980,0.17173412192045567
982,0.5883557203648353
984,-0.6237451035931326
986,0.24693956783995888
988,-1.1733774690472267
990,1.089032408027303
992,0.5823660453244227
994,0.22070109661222787
996,-2.4283186811864717
998,-1.410528741235163
1000,-1.602076920989911
1002,-0.0723170684905614
1004,-2.2803875418149437
1006,-0.15982876153475076
1008,-1.1915084778267833
1010,-1.9937058314243845
1012,1.598653035792643
1014,-0.6487785841223528
1016,2.324849570691117
1018,0.7091701747258704
