wave,flux
336,32068.26144329712
338,39727.443600084574
340,48516.56309508207
342,58102.27555144026
344,68887.43501425588
346,80804.57384739973
348,93436.67661517009
350,108066.13226637615
352,129072.76882526108
354,168295.32222100484
356,248993.11140351612
358,399519.5316735121
360,633263.8611243714
362,938777.9226104897
364,1289514.9133673513
366,1660639.9643736924
368,2031213.3423672172
370,2373384.4449991873
372,2642068.6167972055
374,2777921.0933453655
376,2752646.243086561
378,2620547.929694619
380,2506964.391743372
382,2527681.8719659755
384,2705851.8112184713
386,2962852.0125308232
388,3190486.303863267
390,3323728.2689537993
392,3369314.6684789597
394,3363931.8836617465
396,3348727.9355315324
398,3353179.9068835396
400,3405252.830071999
402,3504803.8292639833
404,3631883.8536366476
406,3763274.9390455196
408,3895736.93604625
410,4040767.8311167373
412,4210654.801724795
414,4407998.5054477295
416,4634067.422524497
418,4890120.340784933
420,5171441.296285206
422,5453753.296295148
424,5701642.298118829
426,5881278.061260751
428,5983996.491223543
430,6029119.149252899
432,6041264.90403281
434,6041387.55136414
436,6041371.690141537
438,6040960.466749375
440,6041574.467289893
442,6041745.78883972
444,6041536.633621312
446,6041550.722405848
448,6041329.084575643
450,6041367.27735018
452,6041125.3902984755
454,6041298.197109707
456,6041214.666430166
458,6041398.605173247
460,6041124.589545648
462,6041473.436539398
464,6041545.095001273
466,6041536.917105479
468,6041205.44656995
470,6041759.300835285
472,6040818.920346663
474,6041414.271793014
476,6041678.296168324
478,6041640.380775682
480,6040958.503097989
482,6041552.493506039
484,6041254.460061604
486,6041556.622712554
488,6041455.315611015
490,6041345.006716237
492,6041569.501979162
494,6041474.30884297
496,6041535.707978134
498,6041738.791512626
500,6041303.039248228
502,6041415.385890589
504,6041635.094666535
506,6041751.926073
508,6041606.30685671
510,6041206.293110206
512,6041451.867010138
514,6041495.1350198565
516,6041522.73879738
518,6041186.136605196
520,6041296.95926924
522,6041501.196390119
524,6041437.4752491005
526,6041289.952674213
528,6041298.848731941
530,6041255.359673307
532,6041422.931156286
534,6041474.105338701
536,6041166.198010845
538,6041738.5054891445
540,6041590.913996786
542,6041520.327584838
544,6041639.256958224
546,6041422.7628778545
548,6041198.591244709
550,6041571.048817316
552,6041451.9532085005
554,6041273.964147017
556,6041393.963314808
558,6041744.802225836
560,6041551.402872249
562,6041479.405354101
564,6041475.993161636
566,6041226.4164836425
568,6041436.937222861
570,6041755.8948784135
572,6041434.936509317
574,6041377.520764277
576,6041356.788265779
578,6041521.088516306
580,6041219.054665713
582,6041285.189856362
584,6042101.740851881
586,6041807.2216305835
588,6041551.900055322
590,6041352.18559611
592,6041329.080098361
594,6041389.488856806
596,6041278.4205358215
598,6041123.655294576
600,6041359.048475598
602,6041581.965111655
604,6041352.934165504
606,6041023.013553214
608,6041285.7291489635
610,6041680.733432377
612,6041276.904557061
614,6040738.941967992
616,6041222.332874293
618,6041688.591558164
620,6040545.076179818
622,6039512.663150379
624,6041362.819043953
626,6043589.533932184
628,6043224.035406656
630,6041071.483496222
632,6041420.659442839
634,6041595.174854757
636,6040842.223211869
638,6041293.514464217
640,6041794.977448621
642,6041563.213402488
644,6040847.760982613
646,6040413.752597774
648,6040896.350172469
650,6042319.361704562
652,6043337.38556318
654,6042794.177045327
656,6040868.411817182
658,6041490.001070519
660,6043907.698463392
662,6041711.950407082
664,6040079.48136225
666,6043021.1583411675
668,6041251.862995014
670,6041962.4711668445
672,6041244.866685321
674,6041158.96339284
676,6041535.731102962
678,6041346.215419457
680,6041150.288196652
682,6041410.314672158
684,6041560.064681818
686,6041447.918785761
688,6040955.818939674
690,6041315.875338953
692,6041350.307975556
694,6041850.281893436
696,6041497.367671758
698,6041199.302168769
700,6041453.64627868
702,6041828.693192877
704,6040860.42770877
706,6041675.622792104
708,6041571.681644926
710,6041346.454989626
712,6041546.234560798
714,6041858.824615336
716,6041142.5820534965
718,6041286.403162461
720,6041703.1207177285
722,6041807.585318082
724,6041329.8607438
726,6041296.890614847
728,6041527.288726995
730,6041723.792105585
732,6041192.330811199
734,6041150.1016538385
736,6041704.398114255
738,6041255.137810724
740,6041344.973276121
742,6041402.044472554
744,6041509.896928869
746,6041611.23472158
748,6041281.529689905
750,6041392.455248062
752,6040981.1977447625
754,6041295.389267499
756,6041239.4416478425
758,6041271.659960353
760,6041533.037164191
762,6033170.558480699
764,5997309.196911797
766,5919816.184365741
768,5789128.623488824
770,5591227.92157777
772,5331562.926099856
774,5030824.995786329
776,4699258.250554136
778,4346757.545140255
780,3987299.429810042
782,3631624.3336451664
784,3286378.269654552
786,2964560.482130975
788,2677357.907088312
790,2431812.978824052
792,2227005.630354121
794,2056991.6675400746
796,1912122.286436368
798,1783069.2196949078
800,1663500.214270693
802,1548744.6415391257
804,1440089.3704584274
806,1338355.7413583586
808,1246002.4351940232
810,1164641.9993123675
812,1094313.8934356393
814,1033315.1507154639
816,979276.3012057306
818,928884.3489745458
820,880151.1850921786
822,831067.2044299131
824,781134.7456778135
826,731197.4373941015
828,682133.9307999852
830,635157.065687494
832,590767.9318637582
834,549817.9262336656
836,511926.9827578021
838,476508.58827418834
840,442988.8091633684
842,410512.7161371145
844,378885.83903410326
846,347759.8550145639
848,317145.038704723
850,286997.5341464601
852,257814.11993689087
854,229635.74166079867
856,202883.51438950063
858,177548.2583061767
860,153963.78261275878
862,132580.8515415665
864,113288.53811543316
866,96239.40874515912
868,81413.00428997858
870,68826.20859127876
872,58133.754868965356
874,49160.33286656182
876,41666.7751322839
878,35497.06635140222
880,30295.018445045593
882,25695.68578759554
884,21591.37521759164
886,17852.922836174053
888,14389.809163301048
890,11160.697668091325
892,8122.388938503005
894,5540.658797514908
896,3560.8201047046186
898,2067.8082667675035
900,1036.1379326991748
902,389.7262820249188
904,91.05201843704549
906,33.85408597934234
908,10.175341117526877
910,0.4798427012002451
912,-3.482973111878331
914,2.393407046365594
916,-5.54246237681494
918,-0.29287613119402345
920,-2.3379566926154904
922,4.289920058427215
924,0.9442159283387628
926,-2.7336637591896857
928,1.0006701908683229
930,-1.3057717257606596
932,1.5404292547943992
934,4.001179039549514
936,-1.414773894536123
938,3.248233771030033
940,0.4896997775772239
942,3.269850699677664
944,0.8757233738836303
946,1.835094323646329
948,-1.5911823412967454
950,0.22756291881490442
952,1.4645588048001232
954,3.043621082643513
956,0.027056986644400358
958,-0.10659459427895207
960,-0.7023202398106899
962,-2.0064684457895754
964,-3.0020412361544704
966,-2.2327748367148637
968,-2.2451702637504916
970,3.087313082970052
972,-1.474238603491238
974,-1.3750943045639343
976,0.09099228775895851
978,-4.359327552662422
980,0.17173412192045567
982,0.5883557203648353
984,-0.6237451035931326
986,0.24693956783995888
988,-1.1733774690472267
990,1.089032408027303
992,0.5823660453244227
994,0.22070109661222787
996,-2.4283186811864717
998,-1.410528741235163
1000,-1.602076920989911
1002,-0.0723170684905614
1004,-2.2803875418149437
1006,-0.15982876153475076
1008,-1.1915084778267833
1010,-1.9937058314243845
1012,1.598653035792643
1014,-0.6487785841223528
1016,2.324849570691117
1018,0.7091701747258704
