wave,flux
336,7856.676322212705
338,9619.24740909415
340,11785.757326110854
342,14294.864886256428
344,16999.407717090766
346,20212.65447572917
348,24084.874986394
350,28381.431970233618
352,34008.82505652558
354,43815.28672909524
356,63311.59831276717
358,99504.07001683899
360,155959.71475576118
362,229858.61169293994
364,314932.30941557704
366,405364.81756022194
368,496395.55330218276
370,582018.0683258126
372,652927.1831503047
374,696819.6995346281
376,706869.0729940142
378,691542.5866199175
380,672408.0220489767
382,669851.29163542
384,689312.5561298978
386,720934.8539863637
388,752447.2548179014
390,780232.2893928007
392,811666.9706797398
394,852691.033033975
396,902781.1843052986
398,959227.2265671488
400,1029336.4073241488
402,1125862.8053762068
404,1253464.0996311954
406,1396448.6387028077
408,1523055.0354656489
410,1606360.7218681856
412,1637262.6036158141
414,1626470.1906597938
416,1594877.5565466385
418,1561196.570417118
420,1542038.119362335
422,1549066.796283474
424,1588698.9955232586
426,1658046.0629520023
428,1742785.4792706731
430,1825935.185690231
432,1896582.4425084528
434,1955803.3345439055
436,2014418.134360433
438,2082816.6962278457
440,2162272.6320371823
442,2245650.3304882576
444,2325399.449438194
446,2401533.774764826
448,2487096.71696628
450,2600436.1562307645
452,2756822.6480654576
454,2962575.68528143
456,3210544.2164872107
458,3483633.102728908
460,3762416.7198537756
462,4030175.0070375507
464,4276777.694611934
466,4502294.989221201
468,4718396.509144902
470,4934951.783805859
472,5152461.204598728
474,5367463.994434776
476,5571395.813899221
478,5746383.370407201
480,5875132.299800178
482,5962049.237161934
484,6012770.67841121
486,6035840.053022223
488,6041519.248184147
490,6041475.208542211
492,6041372.3728151
494,6041500.363497012
496,6041644.924259421
498,6041296.131199207
500,6041021.248465207
502,6041375.535616673
504,6041357.930063796
506,6041234.3229289735
508,6041240.677051285
510,6041669.269570878
512,6041542.811023449
514,6041624.369490951
516,6041777.582984323
518,6041581.840674899
520,6041690.714252771
522,6041666.573050232
524,6041361.05366475
526,6041100.21941904
528,6041604.537328278
530,6041995.372643132
532,6041221.772020596
534,6041420.130688926
536,6041480.050603222
538,6041393.659169726
540,6041157.518069197
542,6041439.578291083
544,6041425.602266701
546,6041661.125298023
548,6041252.006009936
550,6041593.187307599
552,6041463.302433731
554,6041068.8984606825
556,6041117.213148081
558,6041186.6193456035
560,6041413.824113412
562,6041757.181688449
564,6041593.424551906
566,6041657.58793205
568,6041418.383106496
570,6041533.224996488
572,6041193.709645628
574,6041089.482923886
576,6040917.4904384455
578,6041296.3415271705
580,6041421.68742362
582,6040896.255613576
584,6041086.718192535
586,6041861.968176977
588,6041314.654351153
590,6041700.034349095
592,6041795.80982742
594,6041554.042244246
596,6041555.5440032175
598,6041234.919422595
600,6041283.072819647
602,6041468.315488723
604,6041668.102077848
606,6041666.525943503
608,6041346.45017731
610,6041541.525902442
612,6041396.322338586
614,6041198.451890085
616,6041648.041569787
618,6041247.216349374
620,6040192.973790519
622,6040197.060274873
624,6041678.96221777
626,6040737.963861751
628,6039139.472704248
630,6039630.248825016
632,6041350.882436616
634,6040793.689767274
636,6038841.302623796
638,6039394.658194122
640,6040286.884737501
642,6040407.337222367
644,6040614.915285027
646,6041964.999422459
648,6043222.717263731
650,6042353.820948989
652,6040414.286436089
654,6039496.199475596
656,6041032.287000015
658,6042133.899054223
660,6041377.742065188
662,6040554.112857484
664,6040497.492375895
666,6041506.139137844
668,6041110.881864604
670,6041563.8336685365
672,6041267.204243651
674,6041163.483431916
676,6041536.128879634
678,6041346.243450939
680,6041150.289956132
682,6041410.314774387
684,6041560.064687422
686,6041447.9187860545
688,6040955.81893969
690,6041315.875338955
692,6041350.307975556
694,6041850.281893436
696,6041497.367671758
698,6041199.302168769
700,6041453.64627868
702,6041828.693192877
704,6040860.42770877
706,6041675.622792104
708,6041571.681644926
710,6041346.454989626
712,6041546.234560798
714,6041858.824615336
716,6041142.5820534965
718,6041286.403162461
720,6041703.1207177285
722,6041807.585318082
724,6041329.8607438
726,6041296.890614847
728,6041527.288726995
730,6041723.792105585
732,6041192.330811199
734,6041150.1016538385
736,6041704.398114255
738,6041255.137810724
740,6041344.973276121
742,6041402.044472554
744,6041509.896928869
746,6041611.23472158
748,6041281.529689905
750,6041392.455248062
752,6040981.1977447625
754,6041295.389267499
756,6041239.4416478425
758,6041271.659960353
760,6041533.037164191
762,6033170.558480699
764,5997309.196911797
766,5919816.184365741
768,5789128.623488824
770,5591227.92157777
772,5331562.926099856
774,5030824.995786329
776,4699258.250554136
778,4346757.545140255
780,3987299.429810042
782,3631624.3336451664
784,3286378.269654552
786,2964560.482130975
788,2677357.907088312
790,2431812.978824052
792,2227005.630354121
794,2056991.6675400746
796,1912122.286436368
798,1783069.2196949078
800,1663500.214270693
802,1548744.6415391257
804,1440089.3704584274
806,1338355.7413583586
808,1246002.4351940232
810,1164641.9993123675
812,1094313.8934356393
814,1033315.1507154639
816,979276.3012057306
818,928884.3489745458
820,880151.1850921786
822,831067.2044299131
824,781134.7456778135
826,731197.4373941015
828,682133.9307999852
830,635157.065687494
832,590767.9318637582
834,549817.9262336656
836,511926.9827578021
838,476508.58827418834
840,442988.8091633684
842,410512.7161371145
844,378885.83903410326
846,347759.8550145639
848,317145.038704723
850,286997.5341464601
852,257814.11993689087
854,229635.74166079867
856,202883.51438950063
858,177548.2583061767
860,153963.78261275878
862,132580.8515415665
864,113288.53811543316
866,96239.40874515912
868,81413.00428997858
870,68826.20859127876
872,58133.754868965356
874,49160.33286656182
876,41666.7751322839
878,35497.06635140222
880,30295.018445045593
882,25695.68578759554
884,21591.37521759164
886,17852.922836174053
888,14389.809163301048
890,11160.697668091325
892,8122.388938503005
894,5540.658797514908
896,3560.8201047046186
898,2067.8082667675035
900,1036.1379326991748
902,389.7262820249188
904,91.05201843704549
906,33.85408597934234
908,10.175341117526877
910,0.4798427012002451
912,-3.482973111878331
914,2.393407046365594
916,-5.54246237681494
918,-0.29287613119402345
920,-2.3379566926154904
922,4.289920058427215
924,0.9442159283387628
926,-2.7336637591896857
928,1.0006701908683229
930,-1.3057717257606596
932,1.5404292547943992
934,4.001179039549514
936,-1.414773894536123
938,3.248233771030033
940,0.4896997775772239
942,3.269850699677664
944,0.8757233738836303
946,1.835094323646329
948,-1.5911823412967454
950,0.22756291881490442
952,1.4645588048001232
954,3.043621082643513
956,0.027056986644400358
958,-0.10659459427895207
960,-0.7023202398106899
962,-2.0064684457895754
964,-3.0020412361544704
966,-2.2327748367148637
968,-2.2451702637504916
970,3.087313082970052
972,-1.474238603491238
974,-1.3750943045639343
976,0.09099228775895851
978,-4.359327552662422
980,0.17173412192045567
982,0.5883557203648353
984,-0.6237451035931326
986,0.24693956783995888
988,-1.1733774690472267
990,1.089032408027303
992,0.5823660453244227
994,0.22070109661222787
996,-2.4283186811864717
998,-1.410528741235163
1000,-1.602076920989911
1002,-0.0723170684905614
1004,-2.2803875418149437
1006,-0.15982876153475076
1008,-1.1915084778267833
1010,-1.9937058314243845
1012,1.598653035792643
1014,-0.6487785841223528
1016,2.324849570691117
1018,0.7091701747258704
