wave,flux
336,2.278502126674873
338,-0.03510003860063423
340,0.8296632884762094
342,1.26578435568104
344,-4.923709700715761
346,1.9229805088667833
348,1.7967409724807055
350,-0.4895133033935609
352,3.100629569315233
354,2.057877847434301
356,5.873668646507947
358,359.93685312887146
360,1809.2273765523362
362,4630.084896139217
364,8304.347802006521
366,12555.831309641313
368,17460.34552415341
370,23441.177757850182
372,30758.784169338014
374,38343.05209570706
376,45602.84274193506
378,53107.32034558374
380,61705.835401062235
382,71324.99570358872
384,83216.99311266061
386,98417.16982496118
388,116209.34746775829
390,136516.9184781049
392,163786.9502833073
394,198531.2395161034
396,237016.64018620015
398,270042.36766029196
400,297117.39095013385
402,320555.51023294753
404,344738.0993224578
406,370204.0022982696
408,398290.93603648734
410,432000.25962960825
412,473753.8903640283
414,525038.5982561773
416,588897.1367938723
418,674980.2310798813
420,806724.2396188382
422,1018502.9064608545
424,1348709.8977033864
426,1821063.9370653147
428,2427870.54613726
430,3125724.0977493175
432,3849607.7172583523
434,4525231.884007577
436,5090969.393381148
438,5515712.664497773
440,5794417.440592525
442,5946733.039504441
444,6016812.345105646
446,6039376.945435836
448,6041446.812548167
450,6041223.004345828
452,6040960.0946185505
454,6041344.051916714
456,6041630.561011025
458,6041431.221278599
460,6041652.984319864
462,6041621.866746653
464,6041454.554729517
466,6041842.791990207
468,6041629.151111769
470,6041540.492774094
472,6041470.775009546
474,6041071.267623246
476,6041416.267286537
478,6041319.106784481
480,6041351.739811388
482,6041476.295757864
484,6041441.864555662
486,6041681.710373411
488,6041506.341202151
490,6041621.332764767
492,6041226.959483655
494,6041496.242138168
496,6041445.946421569
498,6041538.521009807
500,6041423.100332704
502,6041337.87127487
504,6041263.013987608
506,6041249.10999483
508,6041221.519934086
510,6041232.518825322
512,6041483.42455511
514,6041419.247608239
516,6041623.201031681
518,6041672.366780188
520,6041208.649551665
522,6041800.501227691
524,6041698.014837677
526,6041491.429661608
528,6041134.00801198
530,6041254.345844583
532,6041439.023652137
534,6041120.7352992445
536,6041192.564652332
538,6041250.588865661
540,6041580.701185551
542,6041490.898306179
544,6041217.311453662
546,6041587.091922926
548,6041384.400193236
550,6041512.355182235
552,6041479.08816921
554,6041595.495865514
556,6041884.187420207
558,6041514.341069398
560,6041327.511558822
562,6041525.2437180085
564,6041466.316088456
566,6041266.600089123
568,6041387.717305344
570,6041644.055495985
572,6041707.648509923
574,6041530.868619466
576,6041608.076152245
578,6041861.156125499
580,6041551.234478966
582,6041472.903936605
584,6041835.967146497
586,6041407.974778277
588,6041702.490675007
590,6041306.9292693315
592,6041235.6272792155
594,6041535.236846469
596,6041552.664077598
598,6041539.633334637
600,6041381.027645137
602,6041241.539924358
604,6041130.508124161
606,6041056.030903737
608,6041164.034890675
610,6041459.048006092
612,6041625.603200569
614,6041265.265107363
616,6040557.235053008
618,6040557.525074037
620,6040919.251812687
622,6040694.141281653
624,6039981.696610079
626,6041105.136428444
628,6042442.192920004
630,6042110.1726417495
632,6041080.017530928
634,6041420.463151245
636,6042237.247733569
638,6041179.583428308
640,6041051.774338429
642,6041349.758316564
644,6040166.048004342
646,6041161.251509889
648,6043110.00198498
650,6042405.934811938
652,6041975.822594601
654,6041941.976224497
656,6040152.111655086
658,6040326.8391661225
660,6042448.972952389
662,6041005.8145675855
664,6040064.780631525
666,6043244.436239398
668,6043498.434509716
670,6040363.684621269
672,6039365.226262301
674,6040466.733402186
676,6041865.663744027
678,6042231.7821735805
680,6041611.771740391
682,6041168.67326593
684,6041165.13689171
686,6041443.742665904
688,6040955.655557676
690,6041315.8670570105
692,6041350.307534034
694,6041850.281866441
696,6041497.367669725
698,6041199.3021685835
700,6041453.646278662
702,6041828.693192876
704,6040860.42770877
706,6041675.622792104
708,6041571.681644926
710,6041346.454989626
712,6041546.234560798
714,6041858.824615336
716,6041142.5820534965
718,6041286.403162461
720,6041703.1207177285
722,6041807.585318082
724,6041329.8607438
726,6041296.890614847
728,6041527.288726995
730,6041723.792105585
732,6041192.330811199
734,6041150.1016538385
736,6041704.398114255
738,6041255.137810724
740,6041344.973276121
742,6041402.044472554
744,6041509.896928869
746,6041611.23472158
748,6041281.529689905
750,6041392.455248062
752,6040981.1977447625
754,6041295.389267499
756,6041239.4416478425
758,6041271.659960353
760,6041533.037164191
762,6033170.558480699
764,5997309.196911797
766,5919816.184365741
768,5789128.623488824
770,5591227.92157777
772,5331562.926099856
774,5030824.995786329
776,4699258.250554136
778,4346757.545140255
780,3987299.429810042
782,3631624.3336451664
784,3286378.269654552
786,2964560.482130975
788,2677357.907088312
790,2431812.978824052
792,2227005.630354121
794,2056991.6675400746
796,1912122.286436368
798,1783069.2196949078
800,1663500.214270693
802,1548744.6415391257
804,1440089.3704584274
806,1338355.7413583586
808,1246002.4351940232
810,1164641.9993123675
812,1094313.8934356393
814,1033315.1507154639
816,979276.3012057306
818,928884.3489745458
820,880151.1850921786
822,831067.2044299131
824,781134.7456778135
826,731197.4373941015
828,682133.9307999852
830,635157.065687494
832,590767.9318637582
834,549817.9262336656
836,511926.9827578021
838,476508.58827418834
840,442988.8091633684
842,410512.7161371145
844,378885.83903410326
846,347759.8550145639
848,317145.038704723
850,286997.5341464601
852,257814.11993689087
854,229635.74166079867
856,202883.51438950063
858,177548.2583061767
860,153963.78261275878
862,132580.8515415665
864,113288.53811543316
866,96239.40874515912
868,81413.00428997858
870,68826.20859127876
872,58133.754868965356
874,49160.33286656182
876,41666.7751322839
878,35497.06635140222
880,30295.018445045593
882,25695.68578759554
884,21591.37521759164
886,17852.922836174053
888,14389.809163301048
890,11160.697668091325
892,8122.388938503005
894,5540.658797514908
896,3560.8201047046186
898,2067.8082667675035
900,1036.1379326991748
902,389.7262820249188
904,91.05201843704549
906,33.85408597934234
908,10.175341117526877
910,0.4798427012002451
912,-3.482973111878331
914,2.393407046365594
916,-5.54246237681494
918,-0.29287613119402345
920,-2.3379566926154904
922,4.289920058427215
924,0.9442159283387628
926,-2.7336637591896857
928,1.0006701908683229
930,-1.3057717257606596
932,1.5404292547943992
934,4.001179039549514
936,-1.414773894536123
938,3.248233771030033
940,0.4896997775772239
942,3.269850699677664
944,0.8757233738836303
946,1.835094323646329
948,-1.5911823412967454
950,0.22756291881490442
952,1.4645588048001232
954,3.043621082643513
956,0.027056986644400358
958,-0.10659459427895207
960,-0.7023202398106899
962,-2.0064684457895754
964,-3.0020412361544704
966,-2.2327748367148637
968,-2.2451702637504916
970,3.087313082970052
972,-1.474238603491238
974,-1.3750943045639343
976,0.09099228775895851
978,-4.359327552662422
980,0.17173412192045567
982,0.5883557203648353
984,-0.6237451035931326
986,0.24693956783995888
988,-1.1733774690472267
990,1.089032408027303
992,0.5823660453244227
994,0.22070109661222787
996,-2.4283186811864717
998,-1.410528741235163
1000,-1.602076920989911
1002,-0.0723170684905614
1004,-2.2803875418149437
1006,-0.15982876153475076
1008,-1.1915084778267833
1010,-1.9937058314243845
1012,1.598653035792643
1014,-0.6487785841223528
1016,2.324849570691117
1018,0.7091701747258704
