wave,flux
336,4481.520059486643
338,7035.461038772938
340,10600.401629459306
342,15056.622944901921
344,19705.32026525587
346,24891.255195087095
348,30994.833752459308
350,38258.01528053806
352,46720.34189771735
354,56501.92508323566
356,67415.54184561402
358,79555.02188347692
360,93726.38615353158
362,109986.699301212
364,127092.57180571575
366,145562.854718894
368,167464.29582965665
370,196306.5993869203
372,239398.45505493938
374,310214.97713199444
376,425252.18228864204
378,596292.1014075892
380,826382.7170979233
382,1112693.5967800296
384,1446982.4455795325
386,1814283.35452778
388,2195734.0644924133
390,2587423.076113595
392,3002848.035426595
394,3436451.8013852374
396,3850233.906824263
398,4187379.781054887
400,4431891.871173748
402,4614784.663516691
404,4790239.167964177
406,4998957.56579909
408,5250318.627926731
410,5515423.327833968
412,5750466.8471882725
414,5915645.173798423
416,6002810.919243165
418,6035893.05191737
420,6041878.145388466
422,6041692.801858346
424,6041290.35595595
426,6041239.1346653495
428,6041341.034061354
430,6041919.693053374
432,6041659.586943014
434,6041212.979557877
436,6041614.349361755
438,6041371.71178315
440,6041837.612124796
442,6041188.7932930915
444,6041452.813726252
446,6041452.866359357
448,6041043.428679882
450,6041141.789216366
452,6041572.779667563
454,6041486.383988881
456,6041560.356331309
458,6041578.718757902
460,6041263.364730808
462,6041434.100679952
464,6041341.897933342
466,6041286.939109668
468,6041866.421378468
470,6041765.472962974
472,6041181.804532367
474,6041697.810852164
476,6041962.4091852335
478,6041302.061742289
480,6041063.998999933
482,6041563.13583141
484,6041519.012795118
486,6041133.334406271
488,6041383.554176493
490,6041356.633398566
492,6041489.684638215
494,6041076.468654493
496,6041680.3659949275
498,6041655.557072947
500,6041283.321113836
502,6041201.539226003
504,6041507.64023588
506,6041247.068478652
508,6041671.8612132985
510,6041416.256215876
512,6041174.778710431
514,6041536.7535596
516,6041420.176515824
518,6041637.778273472
520,6040946.31902497
522,6041189.594841607
524,6041719.8058879245
526,6041936.462937003
528,6041521.205276865
530,6041765.285103156
532,6041418.91292526
534,6041432.7827564385
536,6041198.119975889
538,6041684.37150124
540,6041424.062630784
542,6041483.082277599
544,6041417.173909117
546,6041434.04377361
548,6041614.631086151
550,6041645.774741189
552,6041322.471771867
554,6041430.4468686115
556,6041368.937642776
558,6041488.11744317
560,6041195.472127135
562,6041205.9612772325
564,6041144.403972816
566,6041491.518175552
568,6041432.792166966
570,6041417.385661498
572,6041732.40882912
574,6041707.371798853
576,6041511.986858833
578,6041895.674956649
580,6041621.985718673
582,6041266.078021911
584,6041620.355421785
586,6041220.756125134
588,6041608.703541652
590,6041556.827048565
592,6041403.993841042
594,6041316.107686498
596,6041138.779362556
598,6041088.108256776
600,6041005.75496416
602,6041055.69304236
604,6041284.530922387
606,6041559.01266594
608,6041697.476726049
610,6041557.989584422
612,6041187.979568676
614,6041075.785939274
616,6041633.061012675
618,6042277.496149524
620,6041623.8817125205
622,6041265.0276340535
624,6042719.287398074
626,6041044.446613309
628,6039955.212521726
630,6041944.458135085
632,6042388.194261847
634,6042309.4415524695
636,6042234.35907863
638,6041375.818714416
640,6041718.668128563
642,6041842.213237196
644,6039723.159356562
646,6040192.499735103
648,6041637.32628105
650,6041397.538796502
652,6041705.610198252
654,6041397.689620228
656,6041151.217151104
658,6041511.431237594
660,6041551.262289069
662,6041377.486709202
664,6041484.487439375
666,6041443.750089349
668,6041107.991048771
670,6041563.760999665
672,6041267.2062764475
674,6041163.483843256
676,6041536.128915831
678,6041346.24345349
680,6041150.289956291
682,6041410.314774397
684,6041560.064687422
686,6041447.9187860545
688,6040955.81893969
690,6041315.875338955
692,6041350.307975556
694,6041850.281893436
696,6041497.367671758
698,6041199.302168769
700,6041453.64627868
702,6041828.693192877
704,6040860.42770877
706,6041675.622792104
708,6041571.681644926
710,6041346.454989626
712,6041546.234560798
714,6041858.824615336
716,6041142.5820534965
718,6041286.403162461
720,6041703.1207177285
722,6041807.585318082
724,6041329.8607438
726,6041296.890614847
728,6041527.288726995
730,6041723.792105585
732,6041192.330811199
734,6041150.1016538385
736,6041704.398114255
738,6041255.137810724
740,6041344.973276121
742,6041402.044472554
744,6041509.896928869
746,6041611.23472158
748,6041281.529689905
750,6041392.455248062
752,6040981.1977447625
754,6041295.389267499
756,6041239.4416478425
758,6041271.659960353
760,6041533.037164191
762,6033170.558480699
764,5997309.196911797
766,5919816.184365741
768,5789128.623488824
770,5591227.92157777
772,5331562.926099856
774,5030824.995786329
776,4699258.250554136
778,4346757.545140255
780,3987299.429810042
782,3631624.3336451664
784,3286378.269654552
786,2964560.482130975
788,2677357.907088312
790,2431812.978824052
792,2227005.630354121
794,2056991.6675400746
796,1912122.286436368
798,1783069.2196949078
800,1663500.214270693
802,1548744.6415391257
804,1440089.3704584274
806,1338355.7413583586
808,1246002.4351940232
810,1164641.9993123675
812,1094313.8934356393
814,1033315.1507154639
816,979276.3012057306
818,928884.3489745458
820,880151.1850921786
822,831067.2044299131
824,781134.7456778135
826,731197.4373941015
828,682133.9307999852
830,635157.065687494
832,590767.9318637582
834,549817.9262336656
836,511926.9827578021
838,476508.58827418834
840,442988.8091633684
842,410512.7161371145
844,378885.83903410326
846,347759.8550145639
848,317145.038704723
850,286997.5341464601
852,257814.11993689087
854,229635.74166079867
856,202883.51438950063
858,177548.2583061767
860,153963.78261275878
862,132580.8515415665
864,113288.53811543316
866,96239.40874515912
868,81413.00428997858
870,68826.20859127876
872,58133.754868965356
874,49160.33286656182
876,41666.7751322839
878,35497.06635140222
880,30295.018445045593
882,25695.68578759554
884,21591.37521759164
886,17852.922836174053
888,14389.809163301048
890,11160.697668091325
892,8122.388938503005
894,5540.658797514908
896,3560.8201047046186
898,2067.8082667675035
900,1036.1379326991748
902,389.7262820249188
904,91.05201843704549
906,33.85408597934234
908,10.175341117526877
910,0.4798427012002451
912,-3.482973111878331
914,2.393407046365594
916,-5.54246237681494
918,-0.29287613119402345
920,-2.3379566926154904
922,4.289920058427215
924,0.9442159283387628
926,-2.7336637591896857
928,1.0006701908683229
930,-1.3057717257606596
932,1.5404292547943992
934,4.001179039549514
936,-1.414773894536123
938,3.248233771030033
940,0.4896997775772239
942,3.269850699677664
944,0.8757233738836303
946,1.835094323646329
948,-1.5911823412967454
950,0.22756291881490442
952,1.4645588048001232
954,3.043621082643513
956,0.027056986644400358
958,-0.10659459427895207
960,-0.7023202398106899
962,-2.0064684457895754
964,-3.0020412361544704
966,-2.2327748367148637
968,-2.2451702637504916
970,3.087313082970052
972,-1.474238603491238
974,-1.3750943045639343
976,0.09099228775895851
978,-4.359327552662422
980,0.17173412192045567
982,0.5883557203648353
984,-0.6237451035931326
986,0.24693956783995888
988,-1.1733774690472267
990,1.089032408027303
992,0.5823660453244227
994,0.22070109661222787
996,-2.4283186811864717
998,-1.410528741235163
1000,-1.602076920989911
1002,-0.0723170684905614
1004,-2.2803875418149437
1006,-0.15982876153475076
1008,-1.1915084778267833
1010,-1.9937058314243845
1012,1.598653035792643
1014,-0.6487785841223528
1016,2.324849570691117
1018,0.7091701747258704
