wave,flux
336,896489.5176162944
338,1168383.2753682826
340,1326023.4686732206
342,1420732.0949208112
344,1508362.677074358
346,1594668.2408524195
348,1636041.401505492
350,1621059.2816135085
352,1617459.2439445835
354,1670939.3354466443
356,1744463.9622411865
358,1816568.0488683588
360,1908416.2111376468
362,2008480.5133935048
364,2094576.149577073
366,2195128.1872214633
368,2328734.2614868185
370,2423159.540778055
372,2389343.5388698755
374,2256722.6391974404
376,2163317.7610137775
378,2218693.955098898
380,2426006.9873565095
382,2739070.704822714
384,3123830.3770245304
386,3536571.908649839
388,3885296.49329938
390,4091972.981400368
392,4202918.017875782
394,4387968.76402857
396,4766973.600131955
398,5267824.9861443415
400,5703936.699293354
402,5947603.112418812
404,6032927.689876874
406,6041062.143183716
408,6041088.4485693695
410,6041419.785197597
412,6041579.701495551
414,6041675.241881083
416,6041508.819461244
418,6040928.897561316
420,6041106.623025274
422,6041450.429812776
424,6041189.598327458
426,6041667.278528136
428,6041262.742404538
430,6041604.219429732
432,6041412.241865234
434,6041656.971454973
436,6041114.721678862
438,6041353.873894454
440,6041842.1173287425
442,6041146.899375996
444,6041853.434250188
446,6041559.647457947
448,6041284.459254466
450,6041319.439825531
452,6041518.626985301
454,6041631.7785315635
456,6041378.596281486
458,6041443.8725248845
460,6041693.244518839
462,6041637.647296471
464,6041422.265430986
466,6041902.194494535
468,6040828.921088178
470,6041693.395071908
472,6041369.996476315
474,6041275.799268555
476,6041398.675971708
478,6040928.709838998
480,6041342.944327065
482,6041347.474467397
484,6041664.824311813
486,6041407.296440405
488,6041544.61613892
490,6041353.3244215865
492,6041467.989046685
494,6041336.915573431
496,6041177.271069969
498,6041374.097256387
500,6041131.447256158
502,6041435.098752403
504,6041469.726004173
506,6041736.017912364
508,6041878.259387543
510,6041688.846772255
512,6041431.175013606
514,6040970.481851242
516,6041748.5159966
518,6041173.672055413
520,6041387.2135734605
522,6041352.933673877
524,6041393.5531083755
526,6041383.818801648
528,6040944.098366603
530,6041715.369022945
532,6041113.80708105
534,6041300.025348419
536,6041352.523618512
538,6041548.42032023
540,6041238.6702296045
542,6041449.3725181
544,6041701.656307967
546,6041474.857387913
548,6041451.835412434
550,6041692.382604038
552,6041239.387510568
554,6041170.342262153
556,6041672.714426664
558,6041583.120744805
560,6041220.973091371
562,6041522.950684699
564,6041227.591260653
566,6040833.135229221
568,6041610.945008678
570,6041470.976585042
572,6040829.908332745
574,6041280.37423918
576,6041721.464927817
578,6041187.486957791
580,6040798.395743928
582,6041287.169258643
584,6041666.070228122
586,6041308.015541235
588,6041147.595450541
590,6041168.212848579
592,6041241.181921229
594,6041194.676627437
596,6041239.269096864
598,6041495.426327503
600,6041163.9378980035
602,6041374.03344537
604,6041438.428580093
606,6041148.360123491
608,6041580.883237987
610,6041669.703685456
612,6041404.612705389
614,6041396.43963232
616,6041756.362433284
618,6041562.281609496
620,6040653.307945546
622,6039960.967064144
624,6040546.228541882
626,6041923.401282189
628,6042820.388406483
630,6042231.250656986
632,6040390.689480156
634,6039706.772190526
636,6040679.348046569
638,6041463.31861014
640,6040672.567557103
642,6039951.273535688
644,6041198.112065844
646,6040755.737271281
648,6039282.071934004
650,6039998.631284563
652,6041375.688386486
654,6041534.093099942
656,6041326.540259786
658,6041895.439965257
660,6042111.80304001
662,6041309.868291621
664,6040946.459256151
666,6041694.709447594
668,6041284.659987383
670,6041568.202075595
672,6041267.082044349
674,6041163.458704701
676,6041536.126703566
678,6041346.24329759
680,6041150.289946507
682,6041410.314773829
684,6041560.064687391
686,6041447.918786053
688,6040955.818939689
690,6041315.875338955
692,6041350.307975556
694,6041850.281893436
696,6041497.367671758
698,6041199.302168769
700,6041453.64627868
702,6041828.693192877
704,6040860.42770877
706,6041675.622792104
708,6041571.681644926
710,6041346.454989626
712,6041546.234560798
714,6041858.824615336
716,6041142.5820534965
718,6041286.403162461
720,6041703.1207177285
722,6041807.585318082
724,6041329.8607438
726,6041296.890614847
728,6041527.288726995
730,6041723.792105585
732,6041192.330811199
734,6041150.1016538385
736,6041704.398114255
738,6041255.137810724
740,6041344.973276121
742,6041402.044472554
744,6041509.896928869
746,6041611.23472158
748,6041281.529689905
750,6041392.455248062
752,6040981.1977447625
754,6041295.389267499
756,6041239.4416478425
758,6041271.659960353
760,6041533.037164191
762,6033170.558480699
764,5997309.196911797
766,5919816.184365741
768,5789128.623488824
770,5591227.92157777
772,5331562.926099856
774,5030824.995786329
776,4699258.250554136
778,4346757.545140255
780,3987299.429810042
782,3631624.3336451664
784,3286378.269654552
786,2964560.482130975
788,2677357.907088312
790,2431812.978824052
792,2227005.630354121
794,2056991.6675400746
796,1912122.286436368
798,1783069.2196949078
800,1663500.214270693
802,1548744.6415391257
804,1440089.3704584274
806,1338355.7413583586
808,1246002.4351940232
810,1164641.9993123675
812,1094313.8934356393
814,1033315.1507154639
816,979276.3012057306
818,928884.3489745458
820,880151.1850921786
822,831067.2044299131
824,781134.7456778135
826,731197.4373941015
828,682133.9307999852
830,635157.065687494
832,590767.9318637582
834,549817.9262336656
836,511926.9827578021
838,476508.58827418834
840,442988.8091633684
842,410512.7161371145
844,378885.83903410326
846,347759.8550145639
848,317145.038704723
850,286997.5341464601
852,257814.11993689087
854,229635.74166079867
856,202883.51438950063
858,177548.2583061767
860,153963.78261275878
862,132580.8515415665
864,113288.53811543316
866,96239.40874515912
868,81413.00428997858
870,68826.20859127876
872,58133.754868965356
874,49160.33286656182
876,41666.7751322839
878,35497.06635140222
880,30295.018445045593
882,25695.68578759554
884,21591.37521759164
886,17852.922836174053
888,14389.809163301048
890,11160.697668091325
892,8122.388938503005
894,5540.658797514908
896,3560.8201047046186
898,2067.8082667675035
900,1036.1379326991748
902,389.7262820249188
904,91.05201843704549
906,33.85408597934234
908,10.175341117526877
910,0.4798427012002451
912,-3.482973111878331
914,2.393407046365594
916,-5.54246237681494
918,-0.29287613119402345
920,-2.3379566926154904
922,4.289920058427215
924,0.9442159283387628
926,-2.7336637591896857
928,1.0006701908683229
930,-1.3057717257606596
932,1.5404292547943992
934,4.001179039549514
936,-1.414773894536123
938,3.248233771030033
940,0.4896997775772239
942,3.269850699677664
944,0.8757233738836303
946,1.835094323646329
948,-1.5911823412967454
950,0.22756291881490442
952,1.4645588048001232
954,3.043621082643513
956,0.027056986644400358
958,-0.10659459427895207
960,-0.7023202398106899
962,-2.0064684457895754
964,-3.0020412361544704
966,-2.2327748367148637
968,-2.2451702637504916
970,3.087313082970052
972,-1.474238603491238
974,-1.3750943045639343
976,0.09099228775895851
978,-4.359327552662422
980,0.17173412192045567
982,0.5883557203648353
984,-0.6237451035931326
986,0.24693956783995888
988,-1.1733774690472267
990,1.089032408027303
992,0.5823660453244227
994,0.22070109661222787
996,-2.4283186811864717
998,-1.410528741235163
1000,-1.602076920989911
1002,-0.0723170684905614
1004,-2.2803875418149437
1006,-0.15982876153475076
1008,-1.1915084778267833
1010,-1.9937058314243845
1012,1.598653035792643
1014,-0.6487785841223528
1016,2.324849570691117
1018,0.7091701747258704
