wave,flux
336,203.08285049538497
338,406.0009736870426
340,772.0771513300419
342,1336.2232374051885
344,2082.821341079823
346,3050.6962712209083
348,4283.296971365899
350,5737.5673081032755
352,7397.004024116238
354,9319.583696953077
356,11562.642878039564
358,14158.156939243323
360,17221.835050840487
362,20938.851072207384
364,25235.946708760606
366,30184.79010525535
368,36062.254992040565
370,43056.09159745592
372,51265.525900516004
374,60928.9346494813
376,72886.73290242632
378,88259.61088407613
380,108064.91956494703
382,133373.29154387905
384,165759.5038686263
386,207682.71390012538
388,261990.86864258547
390,331804.58106139465
392,419650.42311070213
394,524922.1790574499
396,642992.3644109432
398,767527.0036444765
400,895093.1602553402
402,1025256.598672979
404,1159285.8323446955
406,1298345.4758912355
408,1441794.460831393
410,1586215.0350060277
412,1726185.342855136
414,1858664.160614303
416,1983910.0277366834
418,2106063.533391699
420,2231960.8997490993
422,2367716.549473001
424,2518084.8186541507
426,2689925.472677757
428,2885007.8745866916
430,3102570.7963652327
432,3336222.982602899
434,3579289.133548966
436,3830015.231445631
438,4093158.7403209764
440,4376316.7863336755
442,4686055.865905996
444,5010981.188602239
446,5324661.863213626
448,5599242.072163444
450,5806987.526825819
452,5937612.912189174
454,6007769.414135797
456,6036009.406588024
458,6041669.274875482
460,6041327.281595908
462,6041365.4109067395
464,6041433.4703794615
466,6041456.881487381
468,6041462.701719143
470,6041727.2876185905
472,6041644.746045819
474,6041324.322004887
476,6041690.599803289
478,6041466.028583032
480,6041349.137497455
482,6041432.897043114
484,6041378.453320495
486,6041421.917644095
488,6041643.877961361
490,6041261.34493542
492,6041583.438528857
494,6041709.208434743
496,6041184.099335244
498,6041305.009988503
500,6041301.541053374
502,6041453.037414369
504,6041839.129039102
506,6041556.946942251
508,6041217.948341072
510,6041355.55904235
512,6041371.548594801
514,6041289.9358247435
516,6041221.653466137
518,6041117.153220437
520,6041641.543187502
522,6041533.733901879
524,6041172.372047797
526,6041374.330836025
528,6041580.3436556235
530,6041412.33969851
532,6041806.360326441
534,6041647.920993067
536,6041202.246580313
538,6041015.06108169
540,6041387.822522653
542,6041606.161065441
544,6041530.025866552
546,6041663.317682786
548,6041326.94487665
550,6041393.612146777
552,6041828.614023726
554,6041150.487042618
556,6041072.193741777
558,6041553.978226148
560,6041372.727914922
562,6041556.372883093
564,6041685.674102216
566,6041532.995619034
568,6041381.719759735
570,6041758.7979967
572,6041166.61900748
574,6041537.162630403
576,6041283.743113173
578,6041212.005418776
580,6041466.563629622
582,6041328.498128768
584,6041349.932343774
586,6041721.095785552
588,6041344.118881278
590,6041103.214215073
592,6041128.107802598
594,6041322.555798989
596,6041494.3835533
598,6041436.073170638
600,6041498.534381541
602,6041228.986489409
604,6041283.536163634
606,6041648.288533393
608,6041464.381263085
610,6041711.263621794
612,6041479.092813533
614,6041229.745255157
616,6041735.419728365
618,6041118.587290765
620,6041289.922184339
622,6041842.161011843
624,6040730.31555164
626,6040345.898645328
628,6041348.545782995
630,6042186.774936644
632,6041106.334481761
634,6041701.111895675
636,6042982.701920343
638,6040956.026093542
640,6040825.360360625
642,6042532.977868515
644,6042272.260764926
646,6041699.90105369
648,6041799.083201063
650,6042076.399655173
652,6041536.633063815
654,6040440.445229823
656,6040016.197673824
658,6040465.77800454
660,6041767.813429537
662,6041363.405335666
664,6041481.756861109
666,6041443.560180241
668,6041107.982249275
670,6041563.760778463
672,6041267.206282636
674,6041163.4838445075
676,6041536.128915943
678,6041346.243453498
680,6041150.289956291
682,6041410.314774397
684,6041560.064687422
686,6041447.9187860545
688,6040955.81893969
690,6041315.875338955
692,6041350.307975556
694,6041850.281893436
696,6041497.367671758
698,6041199.302168769
700,6041453.64627868
702,6041828.693192877
704,6040860.42770877
706,6041675.622792104
708,6041571.681644926
710,6041346.454989626
712,6041546.234560798
714,6041858.824615336
716,6041142.5820534965
718,6041286.403162461
720,6041703.1207177285
722,6041807.585318082
724,6041329.8607438
726,6041296.890614847
728,6041527.288726995
730,6041723.792105585
732,6041192.330811199
734,6041150.1016538385
736,6041704.398114255
738,6041255.137810724
740,6041344.973276121
742,6041402.044472554
744,6041509.896928869
746,6041611.23472158
748,6041281.529689905
750,6041392.455248062
752,6040981.1977447625
754,6041295.389267499
756,6041239.4416478425
758,6041271.659960353
760,6041533.037164191
762,6033170.558480699
764,5997309.196911797
766,5919816.184365741
768,5789128.623488824
770,5591227.92157777
772,5331562.926099856
774,5030824.995786329
776,4699258.250554136
778,4346757.545140255
780,3987299.429810042
782,3631624.3336451664
784,3286378.269654552
786,2964560.482130975
788,2677357.907088312
790,2431812.978824052
792,2227005.630354121
794,2056991.6675400746
796,1912122.286436368
798,1783069.2196949078
800,1663500.214270693
802,1548744.6415391257
804,1440089.3704584274
806,1338355.7413583586
808,1246002.4351940232
810,1164641.9993123675
812,1094313.8934356393
814,1033315.1507154639
816,979276.3012057306
818,928884.3489745458
820,880151.1850921786
822,831067.2044299131
824,781134.7456778135
826,731197.4373941015
828,682133.9307999852
830,635157.065687494
832,590767.9318637582
834,549817.9262336656
836,511926.9827578021
838,476508.58827418834
840,442988.8091633684
842,410512.7161371145
844,378885.83903410326
846,347759.8550145639
848,317145.038704723
850,286997.5341464601
852,257814.11993689087
854,229635.74166079867
856,202883.51438950063
858,177548.2583061767
860,153963.78261275878
862,132580.8515415665
864,113288.53811543316
866,96239.40874515912
868,81413.00428997858
870,68826.20859127876
872,58133.754868965356
874,49160.33286656182
876,41666.7751322839
878,35497.06635140222
880,30295.018445045593
882,25695.68578759554
884,21591.37521759164
886,17852.922836174053
888,14389.809163301048
890,11160.697668091325
892,8122.388938503005
894,5540.658797514908
896,3560.8201047046186
898,2067.8082667675035
900,1036.1379326991748
902,389.7262820249188
904,91.05201843704549
906,33.85408597934234
908,10.175341117526877
910,0.4798427012002451
912,-3.482973111878331
914,2.393407046365594
916,-5.54246237681494
918,-0.29287613119402345
920,-2.3379566926154904
922,4.289920058427215
924,0.9442159283387628
926,-2.7336637591896857
928,1.0006701908683229
930,-1.3057717257606596
932,1.5404292547943992
934,4.001179039549514
936,-1.414773894536123
938,3.248233771030033
940,0.4896997775772239
942,3.269850699677664
944,0.8757233738836303
946,1.835094323646329
948,-1.5911823412967454
950,0.22756291881490442
952,1.4645588048001232
954,3.043621082643513
956,0.027056986644400358
958,-0.10659459427895207
960,-0.7023202398106899
962,-2.0064684457895754
964,-3.0020412361544704
966,-2.2327748367148637
968,-2.2451702637504916
970,3.087313082970052
972,-1.474238603491238
974,-1.3750943045639343
976,0.09099228775895851
978,-4.359327552662422
980,0.17173412192045567
982,0.5883557203648353
984,-0.6237451035931326
986,0.24693956783995888
988,-1.1733774690472267
990,1.089032408027303
992,0.5823660453244227
994,0.22070109661222787
996,-2.4283186811864717
998,-1.410528741235163
1000,-1.602076920989911
1002,-0.0723170684905614
1004,-2.2803875418149437
1006,-0.15982876153475076
1008,-1.1915084778267833
1010,-1.9937058314243845
1012,1.598653035792643
1014,-0.6487785841223528
1016,2.324849570691117
1018,0.7091701747258704
