wave,flux
336,6707.554405920713
338,10409.022399379915
340,15337.854401679195
342,20154.333287134577
344,25644.374470896437
346,32367.589360901868
348,40064.01914637041
350,50390.914104678464
352,63614.143613749286
354,77640.03072131459
356,92320.3174719121
358,108433.19452060416
360,125346.80379892909
362,141735.92566624083
364,158145.8312263749
366,177876.92450201573
368,204188.58321969272
370,239835.2173310421
372,292114.42569601315
374,379851.1026244574
376,542791.551334681
378,824136.254924525
380,1229915.1334572574
382,1704017.5009336623
384,2165665.8962972295
386,2583350.7228627163
388,2993800.88080151
390,3443045.907192324
392,3915982.4182931827
394,4334539.024124132
396,4640392.911878372
398,4852380.817445355
400,5053661.421361578
402,5305549.645309732
404,5585402.410017826
406,5826416.177149074
408,5969843.163232282
410,6029990.664673367
412,6041895.195131831
414,6040989.766260096
416,6041548.840991662
418,6041490.808843921
420,6041439.333195976
422,6041198.556832964
424,6041238.84032895
426,6041682.543279724
428,6041644.476481711
430,6041241.654553996
432,6041527.733365126
434,6041051.319196452
436,6041342.909567859
438,6041492.217480764
440,6041283.591234849
442,6041176.336923181
444,6041596.568102019
446,6041381.674891323
448,6041154.667285684
450,6041054.246835759
452,6040768.828486996
454,6041574.823790703
456,6041532.4973921785
458,6041142.903224588
460,6040906.6388697745
462,6041603.388458022
464,6041267.483395702
466,6041034.054733364
468,6041674.971146927
470,6041197.812686788
472,6041609.727514219
474,6041512.29127137
476,6041115.65519169
478,6041537.593342344
480,6041620.970373445
482,6041751.401685644
484,6041302.315888966
486,6041060.206378911
488,6041607.634018186
490,6041183.833839912
492,6041235.138124499
494,6041586.741905438
496,6041527.734514948
498,6041433.314367037
500,6041151.382565117
502,6041198.487636157
504,6041345.735602565
506,6041064.034785956
508,6041767.6221769955
510,6041438.051380024
512,6041593.430808143
514,6041346.9184845835
516,6041272.496517354
518,6041678.220263176
520,6041163.115592046
522,6041411.9481691355
524,6041724.508544471
526,6041443.952917257
528,6041326.668506051
530,6041339.419536665
532,6041532.049613345
534,6041456.612440719
536,6041475.731798354
538,6040994.10239734
540,6041716.910390439
542,6041795.306630534
544,6041609.915549125
546,6041410.386407929
548,6041584.032119984
550,6041563.044673703
552,6041567.707893539
554,6041396.839132941
556,6041393.416313035
558,6041768.522486555
560,6041283.166273681
562,6041006.603594995
564,6041396.412209096
566,6041469.96920875
568,6041391.365826257
570,6041772.855398658
572,6041358.461080616
574,6041414.298827201
576,6041508.15166955
578,6041029.859092046
580,6040955.298937767
582,6041224.003232124
584,6041212.951169865
586,6041509.177928
588,6041646.673172803
590,6041599.771256305
592,6041736.181010693
594,6041683.659595146
596,6041634.380155643
598,6041999.178074956
600,6041370.362621325
602,6041369.861139042
604,6041713.633867752
606,6041622.27244919
608,6041507.270000523
610,6041359.929591824
612,6041624.114989161
614,6041587.366808579
616,6040729.471443969
618,6040909.004173724
620,6041426.122855628
622,6041718.051320087
624,6042062.0234888075
626,6042182.632152496
628,6042092.103334161
630,6041598.536335227
632,6040332.064299674
634,6039568.562065673
636,6039750.500212494
638,6040081.80075743
640,6039954.751784308
642,6039987.371688558
644,6041063.117645679
646,6042224.804230414
648,6043269.210901968
650,6043920.010444418
652,6041372.0848200675
654,6038542.95246294
656,6041200.429556154
658,6043627.513083823
660,6042524.646254967
662,6041428.260635058
664,6042288.71139974
666,6044279.617534359
668,6042655.284968373
670,6038991.91901233
672,6039314.1139179105
674,6041411.208007595
676,6042187.442712449
678,6042630.55307091
680,6042978.75915829
682,6042434.285542483
684,6041332.369395875
686,6040530.628515821
688,6040875.723990103
690,6041448.052612241
692,6041446.311968182
694,6041856.151570546
696,6041497.809937611
698,6041199.342401154
700,6041453.650325039
702,6041828.693610267
704,6040860.427751174
706,6041675.6227962645
708,6041571.681645317
710,6041346.4549896605
712,6041546.234560802
714,6041858.824615336
716,6041142.5820534965
718,6041286.403162461
720,6041703.1207177285
722,6041807.585318082
724,6041329.8607438
726,6041296.890614847
728,6041527.288726995
730,6041723.792105585
732,6041192.330811199
734,6041150.1016538385
736,6041704.398114255
738,6041255.137810724
740,6041344.973276121
742,6041402.044472554
744,6041509.896928869
746,6041611.23472158
748,6041281.529689905
750,6041392.455248062
752,6040981.1977447625
754,6041295.389267499
756,6041239.4416478425
758,6041271.659960353
760,6041533.037164191
762,6033170.558480699
764,5997309.196911797
766,5919816.184365741
768,5789128.623488824
770,5591227.92157777
772,5331562.926099856
774,5030824.995786329
776,4699258.250554136
778,4346757.545140255
780,3987299.429810042
782,3631624.3336451664
784,3286378.269654552
786,2964560.482130975
788,2677357.907088312
790,2431812.978824052
792,2227005.630354121
794,2056991.6675400746
796,1912122.286436368
798,1783069.2196949078
800,1663500.214270693
802,1548744.6415391257
804,1440089.3704584274
806,1338355.7413583586
808,1246002.4351940232
810,1164641.9993123675
812,1094313.8934356393
814,1033315.1507154639
816,979276.3012057306
818,928884.3489745458
820,880151.1850921786
822,831067.2044299131
824,781134.7456778135
826,731197.4373941015
828,682133.9307999852
830,635157.065687494
832,590767.9318637582
834,549817.9262336656
836,511926.9827578021
838,476508.58827418834
840,442988.8091633684
842,410512.7161371145
844,378885.83903410326
846,347759.8550145639
848,317145.038704723
850,286997.5341464601
852,257814.11993689087
854,229635.74166079867
856,202883.51438950063
858,177548.2583061767
860,153963.78261275878
862,132580.8515415665
864,113288.53811543316
866,96239.40874515912
868,81413.00428997858
870,68826.20859127876
872,58133.754868965356
874,49160.33286656182
876,41666.7751322839
878,35497.06635140222
880,30295.018445045593
882,25695.68578759554
884,21591.37521759164
886,17852.922836174053
888,14389.809163301048
890,11160.697668091325
892,8122.388938503005
894,5540.658797514908
896,3560.8201047046186
898,2067.8082667675035
900,1036.1379326991748
902,389.7262820249188
904,91.05201843704549
906,33.85408597934234
908,10.175341117526877
910,0.4798427012002451
912,-3.482973111878331
914,2.393407046365594
916,-5.54246237681494
918,-0.29287613119402345
920,-2.3379566926154904
922,4.289920058427215
924,0.9442159283387628
926,-2.7336637591896857
928,1.0006701908683229
930,-1.3057717257606596
932,1.5404292547943992
934,4.001179039549514
936,-1.414773894536123
938,3.248233771030033
940,0.4896997775772239
942,3.269850699677664
944,0.8757233738836303
946,1.835094323646329
948,-1.5911823412967454
950,0.22756291881490442
952,1.4645588048001232
954,3.043621082643513
956,0.027056986644400358
958,-0.10659459427895207
960,-0.7023202398106899
962,-2.0064684457895754
964,-3.0020412361544704
966,-2.2327748367148637
968,-2.2451702637504916
970,3.087313082970052
972,-1.474238603491238
974,-1.3750943045639343
976,0.09099228775895851
978,-4.359327552662422
980,0.17173412192045567
982,0.5883557203648353
984,-0.6237451035931326
986,0.24693956783995888
988,-1.1733774690472267
990,1.089032408027303
992,0.5823660453244227
994,0.22070109661222787
996,-2.4283186811864717
998,-1.410528741235163
1000,-1.602076920989911
1002,-0.0723170684905614
1004,-2.2803875418149437
1006,-0.15982876153475076
1008,-1.1915084778267833
1010,-1.9937058314243845
1012,1.598653035792643
1014,-0.6487785841223528
1016,2.324849570691117
1018,0.7091701747258704
