wave,flux
336,2.220831772076402
338,3.090687735747533
340,3.3477320292217914
342,-2.422491182137227
344,-0.7575319980451947
346,1.2791478287322255
348,1.1838388429422335
350,1.0714654361867502
352,-0.02782545256947185
354,4.333558236464225
356,8.99863563516054
358,172.16563122348353
360,731.0992544996385
362,1823.0501085169522
364,3378.807850386888
366,5372.623827123903
368,7850.564341742852
370,10819.279373627847
372,14312.345986152968
374,18375.856575312802
376,23028.3144705939
378,28259.30907092199
380,34218.52783038721
382,41095.531637739216
384,49186.73403163181
386,58539.07454677585
388,69051.43828603132
390,80724.0128255239
392,93759.44180458218
394,108279.13167429589
396,123944.58518134912
398,140166.31129468532
400,156817.5009106254
402,174067.0961259515
404,192309.83316834664
406,212319.75021430283
408,234855.81044400326
410,260519.46080375905
412,289447.725275402
414,322058.29520862387
416,360354.7039494792
418,409350.0704783217
420,478518.4300845332
422,581066.9820638178
424,730673.5617251471
426,936183.9336130042
428,1197174.0319728267
430,1503573.0987636414
432,1838296.5499492083
434,2184923.743309395
436,2533338.80412693
438,2878588.6592642334
440,3221518.138234917
442,3565047.078126167
444,3911055.4647559193
446,4259765.568425162
448,4610620.219631351
450,4954109.24234848
452,5272134.689809289
454,5546355.968460302
456,5760451.728169592
458,5903732.96463987
460,5987061.544812612
462,6027505.64477731
464,6040386.597771058
466,6041490.901934521
468,6041187.435890569
470,6041773.73348096
472,6040965.445252296
474,6041423.314534296
476,6041170.839336296
478,6041572.797736375
480,6041341.965034221
482,6041348.364684795
484,6041719.69030232
486,6041370.009608271
488,6041344.982078509
490,6041760.127092601
492,6041138.253639569
494,6041867.098525105
496,6041573.486092323
498,6040963.511189019
500,6041224.195409186
502,6041407.168859153
504,6041496.285691219
506,6041394.485525178
508,6041321.154796182
510,6041276.662996579
512,6041465.648243976
514,6040982.400258496
516,6041472.778572947
518,6041807.967530493
520,6041324.690237856
522,6041461.3670718055
524,6041372.262800009
526,6041357.4634149065
528,6041684.137418213
530,6041470.638900596
532,6041539.728240016
534,6041582.382095894
536,6041339.92157969
538,6041809.054706598
540,6041370.099594731
542,6041304.561054654
544,6041255.853809071
546,6041433.471115818
548,6041405.715936366
550,6041468.344388601
552,6041535.964048877
554,6041630.051483585
556,6041362.169458966
558,6041169.865169472
560,6041384.985719172
562,6041591.980397028
564,6041552.174837591
566,6041321.793677465
568,6041539.356565438
570,6041217.602423718
572,6041477.881148577
574,6041166.933351085
576,6041016.250807481
578,6041395.151290842
580,6041505.835745232
582,6041436.70088216
584,6041621.65355308
586,6041582.612465761
588,6041403.035124111
590,6041061.840519551
592,6040969.277638086
594,6041251.274582033
596,6041436.766857783
598,6041243.182745464
600,6041296.080706829
602,6041445.588348138
604,6041539.445070184
606,6041505.521109664
608,6041358.156511288
610,6041427.075558452
612,6041410.675923327
614,6041222.330344608
616,6041080.873377439
618,6040977.432060874
620,6040937.847852162
622,6040881.603106837
624,6040625.417442728
626,6040121.502448536
628,6040060.938060824
630,6041114.332749475
632,6042794.351649281
634,6041929.305890066
636,6040201.35190484
638,6041878.383422206
640,6042279.052834584
642,6040751.059364329
644,6040294.521462519
646,6040946.069752516
648,6041456.403127271
650,6040636.294610361
652,6039261.3394021215
654,6038940.515338906
656,6040737.446885692
658,6041778.154065051
660,6041557.614115771
662,6041377.3542903615
664,6041484.461761482
666,6041443.748303477
668,6041107.990966022
670,6041563.760997584
672,6041267.206276507
674,6041163.483843268
676,6041536.128915832
678,6041346.243453491
680,6041150.289956291
682,6041410.314774397
684,6041560.064687422
686,6041447.9187860545
688,6040955.81893969
690,6041315.875338955
692,6041350.307975556
694,6041850.281893436
696,6041497.367671758
698,6041199.302168769
700,6041453.64627868
702,6041828.693192877
704,6040860.42770877
706,6041675.622792104
708,6041571.681644926
710,6041346.454989626
712,6041546.234560798
714,6041858.824615336
716,6041142.5820534965
718,6041286.403162461
720,6041703.1207177285
722,6041807.585318082
724,6041329.8607438
726,6041296.890614847
728,6041527.288726995
730,6041723.792105585
732,6041192.330811199
734,6041150.1016538385
736,6041704.398114255
738,6041255.137810724
740,6041344.973276121
742,6041402.044472554
744,6041509.896928869
746,6041611.23472158
748,6041281.529689905
750,6041392.455248062
752,6040981.1977447625
754,6041295.389267499
756,6041239.4416478425
758,6041271.659960353
760,6041533.037164191
762,6033170.558480699
764,5997309.196911797
766,5919816.184365741
768,5789128.623488824
770,5591227.92157777
772,5331562.926099856
774,5030824.995786329
776,4699258.250554136
778,4346757.545140255
780,3987299.429810042
782,3631624.3336451664
784,3286378.269654552
786,2964560.482130975
788,2677357.907088312
790,2431812.978824052
792,2227005.630354121
794,2056991.6675400746
796,1912122.286436368
798,1783069.2196949078
800,1663500.214270693
802,1548744.6415391257
804,1440089.3704584274
806,1338355.7413583586
808,1246002.4351940232
810,1164641.9993123675
812,1094313.8934356393
814,1033315.1507154639
816,979276.3012057306
818,928884.3489745458
820,880151.1850921786
822,831067.2044299131
824,781134.7456778135
826,731197.4373941015
828,682133.9307999852
830,635157.065687494
832,590767.9318637582
834,549817.9262336656
836,511926.9827578021
838,476508.58827418834
840,442988.8091633684
842,410512.7161371145
844,378885.83903410326
846,347759.8550145639
848,317145.038704723
850,286997.5341464601
852,257814.11993689087
854,229635.74166079867
856,202883.51438950063
858,177548.2583061767
860,153963.78261275878
862,132580.8515415665
864,113288.53811543316
866,96239.40874515912
868,81413.00428997858
870,68826.20859127876
872,58133.754868965356
874,49160.33286656182
876,41666.7751322839
878,35497.06635140222
880,30295.018445045593
882,25695.68578759554
884,21591.37521759164
886,17852.922836174053
888,14389.809163301048
890,11160.697668091325
892,8122.388938503005
894,5540.658797514908
896,3560.8201047046186
898,2067.8082667675035
900,1036.1379326991748
902,389.7262820249188
904,91.05201843704549
906,33.85408597934234
908,10.175341117526877
910,0.4798427012002451
912,-3.482973111878331
914,2.393407046365594
916,-5.54246237681494
918,-0.29287613119402345
920,-2.3379566926154904
922,4.289920058427215
924,0.9442159283387628
926,-2.7336637591896857
928,1.0006701908683229
930,-1.3057717257606596
932,1.5404292547943992
934,4.001179039549514
936,-1.414773894536123
938,3.248233771030033
940,0.4896997775772239
942,3.269850699677664
944,0.8757233738836303
946,1.835094323646329
948,-1.5911823412967454
950,0.22756291881490442
952,1.4645588048001232
954,3.043621082643513
956,0.027056986644400358
958,-0.10659459427895207
960,-0.7023202398106899
962,-2.0064684457895754
964,-3.0020412361544704
966,-2.2327748367148637
968,-2.2451702637504916
970,3.087313082970052
972,-1.474238603491238
974,-1.3750943045639343
976,0.09099228775895851
978,-4.359327552662422
980,0.17173412192045567
982,0.5883557203648353
984,-0.6237451035931326
986,0.24693956783995888
988,-1.1733774690472267
990,1.089032408027303
992,0.5823660453244227
994,0.22070109661222787
996,-2.4283186811864717
998,-1.410528741235163
1000,-1.602076920989911
1002,-0.0723170684905614
1004,-2.2803875418149437
1006,-0.15982876153475076
1008,-1.1915084778267833
1010,-1.9937058314243845
1012,1.598653035792643
1014,-0.6487785841223528
1016,2.324849570691117
1018,0.7091701747258704
