wave,flux
336,593.9080921996928
338,838.9321800699728
340,1239.371679027949
342,1665.1240390555051
344,2172.753073389975
346,2926.6615816329336
348,3896.1832742879424
350,4774.455126315105
352,5614.621558399075
354,6725.0984052092435
356,8105.412766746711
358,9866.281478752953
360,12471.030445523918
362,15681.080201701072
364,18583.738800229472
366,21387.28517731422
368,24808.201505643818
370,29147.67081760497
372,34807.77181812995
374,43153.52506455011
376,57450.88097548293
378,82278.65100642024
380,120510.59701712
382,168815.52698656352
384,218086.8179106123
386,259985.1955406687
388,295017.75945217186
390,335938.7273927212
392,402701.95027437946
394,494953.6508987233
396,596651.8027630424
398,684010.6397073606
400,762495.7211345489
402,843482.761496706
404,934451.9677593417
406,1020976.9979696621
408,1084634.9521697208
410,1117117.0930699944
412,1127024.0058504376
414,1135811.7027532281
416,1167295.012686631
418,1239484.1993960047
420,1362706.2362055578
422,1544679.2996522824
424,1789451.529238648
426,2093707.715807613
428,2432822.320244032
430,2759319.6954100267
432,3014465.0196934063
434,3157459.4425448016
436,3186514.7381659984
438,3141351.852243946
440,3081063.042871459
442,3055206.9408084005
444,3087505.490912342
446,3177956.0858542044
448,3312721.1863361276
450,3481400.187233358
452,3681169.4696407276
454,3921866.3862218475
456,4215120.127335129
458,4553526.135231492
460,4915403.746030105
462,5268481.760284178
464,5572255.441990314
466,5792940.574158339
468,5933429.797279022
470,6008290.935336802
472,6037386.16136468
474,6041637.69793006
476,6041742.014807654
478,6041615.768818976
480,6041413.967156274
482,6041099.118660239
484,6041317.918507755
486,6041439.322278855
488,6041332.255586369
490,6041714.282490072
492,6041088.928196512
494,6041117.17344778
496,6041121.97521382
498,6041533.37578146
500,6041592.487284278
502,6041331.004832141
504,6041450.713569863
506,6041565.437773058
508,6041452.028871392
510,6041607.196110804
512,6041088.659956172
514,6041107.465340764
516,6041627.9760271255
518,6041409.61400321
520,6041445.282761243
522,6041382.21976905
524,6041242.921127586
526,6041390.0959094195
528,6041334.061885567
530,6041424.366994557
532,6041691.332689273
534,6040982.276449093
536,6041477.041256373
538,6041421.721011958
540,6041339.000777711
542,6041590.1419052025
544,6041603.279800145
546,6041277.384242545
548,6041300.14474556
550,6041182.104181274
552,6041583.396824693
554,6041544.545471476
556,6041326.985724278
558,6041531.046345795
560,6041637.761762943
562,6041595.066577344
564,6041059.184707863
566,6041026.638851336
568,6041506.935158317
570,6041056.551304734
572,6041467.317208593
574,6041516.869167353
576,6041459.174215611
578,6041525.694927726
580,6041508.482737446
582,6041499.1416509375
584,6041572.911486883
586,6041424.004420622
588,6041152.251397084
590,6041618.9913152205
592,6041521.227436017
594,6041291.709194074
596,6041596.5367908515
598,6041658.594378824
600,6041796.778589617
602,6041788.876160447
604,6041489.355118668
606,6041191.088500926
608,6041254.80871686
610,6041424.07070064
612,6041444.871646855
614,6041384.828152199
616,6041423.996811309
618,6041328.125479852
620,6040207.42051539
622,6039158.91060045
624,6039982.739882883
626,6041197.719085171
628,6041528.608627105
630,6041242.982551926
632,6041744.177596914
634,6042074.628046693
636,6042161.920258226
638,6042846.181954197
640,6042970.756271426
642,6042416.752762661
644,6041949.347443569
646,6041567.131165675
648,6041213.84462312
650,6040902.220409506
652,6040646.732043984
654,6040461.853045715
656,6040362.056933855
658,6040361.817227558
660,6040475.607445984
662,6040717.901108285
664,6041103.17173362
666,6041645.892841147
668,6041115.545912674
670,6041563.950912643
672,6041267.200963932
674,6041163.48276826
676,6041536.128821229
678,6041346.243446822
680,6041150.289955873
682,6041410.314774372
684,6041560.064687422
686,6041447.9187860545
688,6040955.81893969
690,6041315.875338955
692,6041350.307975556
694,6041850.281893436
696,6041497.367671758
698,6041199.302168769
700,6041453.64627868
702,6041828.693192877
704,6040860.42770877
706,6041675.622792104
708,6041571.681644926
710,6041346.454989626
712,6041546.234560798
714,6041858.824615336
716,6041142.5820534965
718,6041286.403162461
720,6041703.1207177285
722,6041807.585318082
724,6041329.8607438
726,6041296.890614847
728,6041527.288726995
730,6041723.792105585
732,6041192.330811199
734,6041150.1016538385
736,6041704.398114255
738,6041255.137810724
740,6041344.973276121
742,6041402.044472554
744,6041509.896928869
746,6041611.23472158
748,6041281.529689905
750,6041392.455248062
752,6040981.1977447625
754,6041295.389267499
756,6041239.4416478425
758,6041271.659960353
760,6041533.037164191
762,6033170.558480699
764,5997309.196911797
766,5919816.184365741
768,5789128.623488824
770,5591227.92157777
772,5331562.926099856
774,5030824.995786329
776,4699258.250554136
778,4346757.545140255
780,3987299.429810042
782,3631624.3336451664
784,3286378.269654552
786,2964560.482130975
788,2677357.907088312
790,2431812.978824052
792,2227005.630354121
794,2056991.6675400746
796,1912122.286436368
798,1783069.2196949078
800,1663500.214270693
802,1548744.6415391257
804,1440089.3704584274
806,1338355.7413583586
808,1246002.4351940232
810,1164641.9993123675
812,1094313.8934356393
814,1033315.1507154639
816,979276.3012057306
818,928884.3489745458
820,880151.1850921786
822,831067.2044299131
824,781134.7456778135
826,731197.4373941015
828,682133.9307999852
830,635157.065687494
832,590767.9318637582
834,549817.9262336656
836,511926.9827578021
838,476508.58827418834
840,442988.8091633684
842,410512.7161371145
844,378885.83903410326
846,347759.8550145639
848,317145.038704723
850,286997.5341464601
852,257814.11993689087
854,229635.74166079867
856,202883.51438950063
858,177548.2583061767
860,153963.78261275878
862,132580.8515415665
864,113288.53811543316
866,96239.40874515912
868,81413.00428997858
870,68826.20859127876
872,58133.754868965356
874,49160.33286656182
876,41666.7751322839
878,35497.06635140222
880,30295.018445045593
882,25695.68578759554
884,21591.37521759164
886,17852.922836174053
888,14389.809163301048
890,11160.697668091325
892,8122.388938503005
894,5540.658797514908
896,3560.8201047046186
898,2067.8082667675035
900,1036.1379326991748
902,389.7262820249188
904,91.05201843704549
906,33.85408597934234
908,10.175341117526877
910,0.4798427012002451
912,-3.482973111878331
914,2.393407046365594
916,-5.54246237681494
918,-0.29287613119402345
920,-2.3379566926154904
922,4.289920058427215
924,0.9442159283387628
926,-2.7336637591896857
928,1.0006701908683229
930,-1.3057717257606596
932,1.5404292547943992
934,4.001179039549514
936,-1.414773894536123
938,3.248233771030033
940,0.4896997775772239
942,3.269850699677664
944,0.8757233738836303
946,1.835094323646329
948,-1.5911823412967454
950,0.22756291881490442
952,1.4645588048001232
954,3.043621082643513
956,0.027056986644400358
958,-0.10659459427895207
960,-0.7023202398106899
962,-2.0064684457895754
964,-3.0020412361544704
966,-2.2327748367148637
968,-2.2451702637504916
970,3.087313082970052
972,-1.474238603491238
974,-1.3750943045639343
976,0.09099228775895851
978,-4.359327552662422
980,0.17173412192045567
982,0.5883557203648353
984,-0.6237451035931326
986,0.24693956783995888
988,-1.1733774690472267
990,1.089032408027303
992,0.5823660453244227
994,0.22070109661222787
996,-2.4283186811864717
998,-1.410528741235163
1000,-1.602076920989911
1002,-0.0723170684905614
1004,-2.2803875418149437
1006,-0.15982876153475076
1008,-1.1915084778267833
1010,-1.9937058314243845
1012,1.598653035792643
1014,-0.6487785841223528
1016,2.324849570691117
1018,0.7091701747258704
