wave,flux
336,28279.59426837507
338,37249.77737980411
340,46809.967393066756
342,56225.26637162998
344,64849.94612338411
346,73612.48994695357
348,82295.60496405321
350,87572.08131105384
352,87496.9913588987
354,85952.36765682642
356,89755.86066310304
358,101666.59834436738
360,117568.52958789868
362,131208.99493323488
364,140870.33199331502
366,150388.60246958837
368,162912.21590182433
370,176101.92180437877
372,184123.57044320586
374,183308.2337198012
376,175519.27285172231
378,166366.71870523278
380,160956.128851434
382,160523.4811155874
384,163173.44098775994
386,167898.70573750278
388,177067.73431257097
390,195132.71148370949
392,224967.56463073508
394,263757.4190113859
396,304038.7558318338
398,338236.0294305108
400,365187.47221698833
402,389216.9523910625
404,416357.97705567395
406,449395.54135584563
408,487926.9519267933
410,531463.5469943193
412,581691.3764716248
414,641924.0478499185
416,713540.1771454753
418,793681.3109893056
420,875977.8792568798
422,953259.420282386
424,1022689.1244930662
426,1088029.070575759
428,1159814.1431703467
430,1251018.1483409214
432,1370062.6253819976
434,1516739.4095532259
436,1681347.144001134
438,1848487.2521860902
440,2003761.9461140218
442,2139478.3570355065
444,2255643.5620901105
446,2360853.2388274204
448,2466629.1816700776
450,2584356.076434559
452,2723326.1548730903
454,2887632.0695293113
456,3078101.7754762056
458,3290077.7279398306
460,3516509.0530867414
462,3749528.956511114
464,3980787.499389311
466,4207270.111962644
468,4430699.638070614
470,4656834.40538549
472,4890732.045589115
474,5127060.074165013
476,5357304.741191163
478,5568476.023818497
480,5745976.7597886585
482,5875717.625741756
484,5961493.9847499775
486,6011189.614109639
488,6034745.879136517
490,6041227.698198981
492,6041701.115510945
494,6041035.4636861915
496,6041472.450644619
498,6041331.925530973
500,6041331.832709529
502,6041540.691630835
504,6041715.141598169
506,6041575.698884631
508,6041377.186910266
510,6041737.291755432
512,6041244.582005122
514,6041314.519870819
516,6041854.162452212
518,6041038.0410959
520,6041032.199630876
522,6041458.688153969
524,6041387.858601214
526,6041188.353488442
528,6041512.463367211
530,6041409.166694798
532,6041692.525723694
534,6040895.477374061
536,6041322.298901399
538,6041548.668282423
540,6041212.656352557
542,6041276.71744419
544,6041587.863822154
546,6041422.49488836
548,6041266.3537772335
550,6041445.35810029
552,6041187.492234564
554,6041374.280250078
556,6041502.298397163
558,6041111.905745002
560,6041342.57562127
562,6041396.127675244
564,6041744.586703268
566,6041343.627236316
568,6041283.245892748
570,6040950.575516668
572,6040971.804678421
574,6041344.889505158
576,6041654.75383111
578,6041642.461460667
580,6041452.255120619
582,6041534.771490169
584,6041625.261899685
586,6041200.075200485
588,6041211.581072709
590,6041219.554285084
592,6041283.704204215
594,6041386.274476688
596,6041452.494079549
598,6041545.861440228
600,6041458.068367764
602,6041349.080187127
604,6041038.206721824
606,6040951.664178802
608,6041600.641013131
610,6041530.177871899
612,6041370.965651662
614,6041645.218594757
616,6041669.768155038
618,6040630.403137731
620,6040275.911380593
622,6041140.80073112
624,6041673.323322541
626,6040614.808157692
628,6041005.259657398
630,6042591.621649761
632,6040140.4078938635
634,6039795.372345776
636,6042289.930506456
638,6042161.647486799
640,6041534.033435712
642,6041718.837078376
644,6042173.30065561
646,6042562.934876176
648,6042600.252324687
650,6041997.765585753
652,6041722.233701329
654,6041397.696472789
656,6041151.181302968
658,6041511.42892837
660,6041551.262222676
662,6041377.486710585
664,6041484.487439644
666,6041443.750089368
668,6041107.991048773
670,6041563.760999665
672,6041267.2062764475
674,6041163.483843256
676,6041536.128915831
678,6041346.24345349
680,6041150.289956291
682,6041410.314774397
684,6041560.064687422
686,6041447.9187860545
688,6040955.81893969
690,6041315.875338955
692,6041350.307975556
694,6041850.281893436
696,6041497.367671758
698,6041199.302168769
700,6041453.64627868
702,6041828.693192877
704,6040860.42770877
706,6041675.622792104
708,6041571.681644926
710,6041346.454989626
712,6041546.234560798
714,6041858.824615336
716,6041142.5820534965
718,6041286.403162461
720,6041703.1207177285
722,6041807.585318082
724,6041329.8607438
726,6041296.890614847
728,6041527.288726995
730,6041723.792105585
732,6041192.330811199
734,6041150.1016538385
736,6041704.398114255
738,6041255.137810724
740,6041344.973276121
742,6041402.044472554
744,6041509.896928869
746,6041611.23472158
748,6041281.529689905
750,6041392.455248062
752,6040981.1977447625
754,6041295.389267499
756,6041239.4416478425
758,6041271.659960353
760,6041533.037164191
762,6033170.558480699
764,5997309.196911797
766,5919816.184365741
768,5789128.623488824
770,5591227.92157777
772,5331562.926099856
774,5030824.995786329
776,4699258.250554136
778,4346757.545140255
780,3987299.429810042
782,3631624.3336451664
784,3286378.269654552
786,2964560.482130975
788,2677357.907088312
790,2431812.978824052
792,2227005.630354121
794,2056991.6675400746
796,1912122.286436368
798,1783069.2196949078
800,1663500.214270693
802,1548744.6415391257
804,1440089.3704584274
806,1338355.7413583586
808,1246002.4351940232
810,1164641.9993123675
812,1094313.8934356393
814,1033315.1507154639
816,979276.3012057306
818,928884.3489745458
820,880151.1850921786
822,831067.2044299131
824,781134.7456778135
826,731197.4373941015
828,682133.9307999852
830,635157.065687494
832,590767.9318637582
834,549817.9262336656
836,511926.9827578021
838,476508.58827418834
840,442988.8091633684
842,410512.7161371145
844,378885.83903410326
846,347759.8550145639
848,317145.038704723
850,286997.5341464601
852,257814.11993689087
854,229635.74166079867
856,202883.51438950063
858,177548.2583061767
860,153963.78261275878
862,132580.8515415665
864,113288.53811543316
866,96239.40874515912
868,81413.00428997858
870,68826.20859127876
872,58133.754868965356
874,49160.33286656182
876,41666.7751322839
878,35497.06635140222
880,30295.018445045593
882,25695.68578759554
884,21591.37521759164
886,17852.922836174053
888,14389.809163301048
890,11160.697668091325
892,8122.388938503005
894,5540.658797514908
896,3560.8201047046186
898,2067.8082667675035
900,1036.1379326991748
902,389.7262820249188
904,91.05201843704549
906,33.85408597934234
908,10.175341117526877
910,0.4798427012002451
912,-3.482973111878331
914,2.393407046365594
916,-5.54246237681494
918,-0.29287613119402345
920,-2.3379566926154904
922,4.289920058427215
924,0.9442159283387628
926,-2.7336637591896857
928,1.0006701908683229
930,-1.3057717257606596
932,1.5404292547943992
934,4.001179039549514
936,-1.414773894536123
938,3.248233771030033
940,0.4896997775772239
942,3.269850699677664
944,0.8757233738836303
946,1.835094323646329
948,-1.5911823412967454
950,0.22756291881490442
952,1.4645588048001232
954,3.043621082643513
956,0.027056986644400358
958,-0.10659459427895207
960,-0.7023202398106899
962,-2.0064684457895754
964,-3.0020412361544704
966,-2.2327748367148637
968,-2.2451702637504916
970,3.087313082970052
972,-1.474238603491238
974,-1.3750943045639343
976,0.09099228775895851
978,-4.359327552662422
980,0.17173412192045567
982,0.5883557203648353
984,-0.6237451035931326
986,0.24693956783995888
988,-1.1733774690472267
990,1.089032408027303
992,0.5823660453244227
994,0.22070109661222787
996,-2.4283186811864717
998,-1.410528741235163
1000,-1.602076920989911
1002,-0.0723170684905614
1004,-2.2803875418149437
1006,-0.15982876153475076
1008,-1.1915084778267833
1010,-1.9937058314243845
1012,1.598653035792643
1014,-0.6487785841223528
1016,2.324849570691117
1018,0.7091701747258704
