wave,flux
336,28649.23233029151
338,35854.2589277145
340,43814.93504822548
342,53272.17113068067
344,64851.939522155604
346,77619.80061338445
348,91670.43691987128
350,108463.50665353314
352,130446.34157215605
354,167437.4734235472
356,240045.94695170174
358,372377.7080058302
360,575260.2082960964
362,839263.8547556662
364,1142593.2004355083
366,1464836.6498457799
368,1789213.1856839617
370,2097088.7640009245
372,2356269.5673509426
374,2524750.4237120864
376,2582333.622226241
378,2564346.8907078872
380,2548657.8111964143
382,2606266.3400294273
384,2761318.9054683535
386,2987134.43482821
388,3224263.0962770777
390,3420560.701615106
392,3575164.0854572835
394,3738030.4592940076
396,3980317.5924640056
398,4329802.423593437
400,4763603.1899363855
402,5210895.75521645
404,5589592.467551384
406,5848132.366665561
408,5981249.829805087
410,6031669.939200368
412,6041354.1568163885
414,6041497.588893376
416,6041552.12289341
418,6041629.234925876
420,6041427.459243211
422,6041218.657552877
424,6041861.979788818
426,6041638.032207136
428,6041356.144924777
430,6041479.670675876
432,6041487.404640933
434,6041553.850196503
436,6041035.67379841
438,6041293.409803753
440,6041618.499926319
442,6041801.586232262
444,6041509.860348039
446,6041388.53125217
448,6041663.753727265
450,6041645.341663771
452,6041526.735444898
454,6041603.561504829
456,6041249.215356325
458,6041407.766706057
460,6041453.217587529
462,6041457.203863645
464,6041501.938210538
466,6040797.294513773
468,6041093.881346161
470,6041751.137490176
472,6041526.633518232
474,6041621.415279821
476,6041028.276205306
478,6041147.015750008
480,6041418.687769716
482,6041595.293015255
484,6041203.3516058065
486,6041698.8931836365
488,6041255.875967606
490,6041405.633151454
492,6041369.2369433
494,6041071.652452056
496,6041615.970155781
498,6041413.063621157
500,6041515.225859242
502,6041466.07617422
504,6041596.714211362
506,6041543.14819844
508,6041181.00809237
510,6041201.419839039
512,6041265.003908878
514,6041433.425432969
516,6041314.9428165015
518,6042103.381476477
520,6041083.514664162
522,6041488.194911638
524,6041274.929376826
526,6041414.564106621
528,6041340.281080898
530,6041312.724275732
532,6041518.828778949
534,6041340.516854351
536,6041207.62860739
538,6041305.194805023
540,6041050.040762768
542,6041301.406361143
544,6041297.131271625
546,6041427.696177326
548,6041154.189662499
550,6040931.372508834
552,6041416.429395614
554,6041422.970518289
556,6041530.6902373405
558,6041780.597977279
560,6041336.517278931
562,6041274.755919295
564,6041756.254800299
566,6041724.995351732
568,6041576.049594268
570,6040913.69271999
572,6041440.430666566
574,6041766.869256051
576,6041607.02573815
578,6041347.604595783
580,6041417.048430477
582,6041383.411612174
584,6041136.102836081
586,6041473.1289875675
588,6041694.493702556
590,6041654.646596496
592,6041430.126552141
594,6041358.060656309
596,6041481.120348419
598,6041473.174705195
600,6041453.55715188
602,6041593.523894311
604,6041465.93724383
606,6041203.13726732
608,6041509.833162812
610,6041841.323505646
612,6041493.904958692
614,6041071.277080274
616,6041336.420296552
618,6041269.123413281
620,6041063.945417438
622,6041680.28181568
624,6042858.091787777
626,6041575.518725581
628,6041234.360783634
630,6043127.168869058
632,6042578.081767046
634,6042537.471433195
636,6043578.49862483
638,6042933.112744924
640,6041838.307495376
642,6041149.156883186
644,6040909.797070395
646,6041575.767149484
648,6042477.4532871125
650,6042459.471979829
652,6041768.804853876
654,6041468.678627288
656,6042344.952427737
658,6042047.805778293
660,6040360.720640987
662,6040326.702617814
664,6041073.610585692
666,6041003.999906458
668,6041012.386736407
670,6041727.228833536
672,6043028.029339704
674,6043627.918113456
676,6042637.987854683
678,6040842.745232743
680,6039575.9743349645
682,6040109.090600155
684,6040941.224961963
686,6040332.742911949
688,6039809.861033459
690,6040320.611787487
692,6040733.581060167
694,6040678.149319738
696,6040671.2792355
698,6040876.229488223
700,6041188.131507557
702,6041253.248211121
704,6040858.593706516
706,6040648.041739359
708,6041022.170544879
710,6041232.919478449
712,6041539.3362651495
714,6041858.313456549
716,6041142.55070114
718,6041286.402073009
720,6041703.120807645
722,6041807.5853422815
724,6041329.860746858
726,6041296.890615122
728,6041527.288727012
730,6041723.792105587
732,6041192.330811198
734,6041150.1016538385
736,6041704.398114255
738,6041255.137810724
740,6041344.973276121
742,6041402.044472554
744,6041509.896928869
746,6041611.23472158
748,6041281.529689905
750,6041392.455248062
752,6040981.1977447625
754,6041295.389267499
756,6041239.4416478425
758,6041271.659960353
760,6041533.037164191
762,6033170.558480699
764,5997309.196911797
766,5919816.184365741
768,5789128.623488824
770,5591227.92157777
772,5331562.926099856
774,5030824.995786329
776,4699258.250554136
778,4346757.545140255
780,3987299.429810042
782,3631624.3336451664
784,3286378.269654552
786,2964560.482130975
788,2677357.907088312
790,2431812.978824052
792,2227005.630354121
794,2056991.6675400746
796,1912122.286436368
798,1783069.2196949078
800,1663500.214270693
802,1548744.6415391257
804,1440089.3704584274
806,1338355.7413583586
808,1246002.4351940232
810,1164641.9993123675
812,1094313.8934356393
814,1033315.1507154639
816,979276.3012057306
818,928884.3489745458
820,880151.1850921786
822,831067.2044299131
824,781134.7456778135
826,731197.4373941015
828,682133.9307999852
830,635157.065687494
832,590767.9318637582
834,549817.9262336656
836,511926.9827578021
838,476508.58827418834
840,442988.8091633684
842,410512.7161371145
844,378885.83903410326
846,347759.8550145639
848,317145.038704723
850,286997.5341464601
852,257814.11993689087
854,229635.74166079867
856,202883.51438950063
858,177548.2583061767
860,153963.78261275878
862,132580.8515415665
864,113288.53811543316
866,96239.40874515912
868,81413.00428997858
870,68826.20859127876
872,58133.754868965356
874,49160.33286656182
876,41666.7751322839
878,35497.06635140222
880,30295.018445045593
882,25695.68578759554
884,21591.37521759164
886,17852.922836174053
888,14389.809163301048
890,11160.697668091325
892,8122.388938503005
894,5540.658797514908
896,3560.8201047046186
898,2067.8082667675035
900,1036.1379326991748
902,389.7262820249188
904,91.05201843704549
906,33.85408597934234
908,10.175341117526877
910,0.4798427012002451
912,-3.482973111878331
914,2.393407046365594
916,-5.54246237681494
918,-0.29287613119402345
920,-2.3379566926154904
922,4.289920058427215
924,0.9442159283387628
926,-2.7336637591896857
928,1.0006701908683229
930,-1.3057717257606596
932,1.5404292547943992
934,4.001179039549514
936,-1.414773894536123
938,3.248233771030033
940,0.4896997775772239
942,3.269850699677664
944,0.8757233738836303
946,1.835094323646329
948,-1.5911823412967454
950,0.22756291881490442
952,1.4645588048001232
954,3.043621082643513
956,0.027056986644400358
958,-0.10659459427895207
960,-0.7023202398106899
962,-2.0064684457895754
964,-3.0020412361544704
966,-2.2327748367148637
968,-2.2451702637504916
970,3.087313082970052
972,-1.474238603491238
974,-1.3750943045639343
976,0.09099228775895851
978,-4.359327552662422
980,0.17173412192045567
982,0.5883557203648353
984,-0.6237451035931326
986,0.24693956783995888
988,-1.1733774690472267
990,1.089032408027303
992,0.5823660453244227
994,0.22070109661222787
996,-2.4283186811864717
998,-1.410528741235163
1000,-1.602076920989911
1002,-0.0723170684905614
1004,-2.2803875418149437
1006,-0.15982876153475076
1008,-1.1915084778267833
1010,-1.9937058314243845
1012,1.598653035792643
1014,-0.6487785841223528
1016,2.324849570691117
1018,0.7091701747258704
