wave,flux
336,368784.42991214304
338,500081.3685467306
340,595992.880889308
342,687951.1867469342
344,793713.3405904418
346,887558.4827185395
348,963563.9468469408
350,1027644.3627628823
352,1077742.141387232
354,1144303.760207659
356,1251433.8631223012
358,1342443.2760273411
360,1345405.7862270784
362,1281762.297935705
364,1241050.0081732909
366,1262156.1432156407
368,1291312.7952039063
370,1259583.8187947266
372,1167228.213551488
374,1071995.9506434917
376,1026574.7480025088
378,1041820.9245549883
380,1093758.2265151616
382,1148691.8753868716
384,1187444.2706038593
386,1222241.2882198256
388,1289837.2748734993
390,1424734.587411414
392,1636171.7427994777
394,1903901.2763139764
396,2198995.2225205954
398,2489022.4051027605
400,2743583.996292866
402,2926347.043470937
404,3020826.5164970816
406,3052459.798010094
408,3092863.731649959
410,3224492.8770610145
412,3497502.135343264
414,3908637.7732830388
416,4408728.178480185
418,4923608.915838004
420,5374115.24091913
422,5711089.685887808
424,5911899.393878284
426,6007047.969539968
428,6038281.106020022
430,6041226.9933744
432,6041108.578340391
434,6041185.474266922
436,6041475.058038434
438,6041553.105263921
440,6041492.797521254
442,6041111.798388491
444,6041247.905802284
446,6041361.277203485
448,6041498.113941204
450,6041284.14085659
452,6041333.67251097
454,6041219.009327713
456,6041365.518774433
458,6041484.8322601365
460,6041410.962511045
462,6041497.289341712
464,6041327.030081589
466,6041108.592013248
468,6041466.370384076
470,6041242.793385374
472,6041531.6731219385
474,6041117.67330959
476,6041266.229444535
478,6041373.4220773475
480,6041540.497534578
482,6041436.923927887
484,6041182.789285497
486,6041305.433835615
488,6041576.147293066
490,6041235.218227966
492,6041685.53827154
494,6041868.153000137
496,6041099.552610102
498,6041752.8751669405
500,6041613.660972373
502,6041093.211969029
504,6041602.55354411
506,6041502.37509311
508,6041440.153159531
510,6041317.325303175
512,6041345.85479856
514,6041406.540295455
516,6041750.467921472
518,6041361.609539206
520,6041398.142883988
522,6041645.324728803
524,6041339.830309815
526,6041140.095059108
528,6041728.374146775
530,6041401.558750117
532,6041539.496869853
534,6041522.768483513
536,6040950.62860811
538,6041155.988997041
540,6041071.400758129
542,6041500.616747163
544,6041488.184623417
546,6041216.397779868
548,6041034.1184047265
550,6041374.391488282
552,6041516.234964023
554,6041329.157960091
556,6041577.2843986815
558,6041467.728819709
560,6041386.138033134
562,6041590.695301361
564,6041496.273780391
566,6041352.377036994
568,6041565.802367988
570,6041306.719030569
572,6041141.034478447
574,6041791.161232766
576,6041682.43450513
578,6041259.844577147
580,6041416.942427512
582,6041280.413684555
584,6040909.071685677
586,6041260.283959812
588,6040528.475404754
590,6041094.542156566
592,6041517.11056173
594,6041627.762824877
596,6041924.609063788
598,6041633.520705492
600,6041396.745653885
602,6041184.243019212
604,6041163.976193176
606,6041363.254158857
608,6041437.369602578
610,6041339.982811229
612,6041250.997670102
614,6041341.09836026
616,6041639.916207786
618,6041929.94540927
620,6041510.200741145
622,6040838.050757158
624,6041013.931403845
626,6041654.225773117
628,6041985.966377738
630,6041572.9265632
632,6040941.2615226
634,6042168.638469508
636,6042753.096087399
638,6038973.360038299
640,6038379.2559665935
642,6040719.325490782
644,6040656.47561034
646,6040995.286673214
648,6041545.066933715
650,6040226.158049144
652,6039716.4436997725
654,6040646.199483661
656,6041248.887173786
658,6041491.426200643
660,6041550.687127746
662,6041377.498699798
664,6041484.489764523
666,6041443.75025106
668,6041107.991056264
670,6041563.760999853
672,6041267.206276444
674,6041163.483843256
676,6041536.128915831
678,6041346.24345349
680,6041150.289956291
682,6041410.314774397
684,6041560.064687422
686,6041447.9187860545
688,6040955.81893969
690,6041315.875338955
692,6041350.307975556
694,6041850.281893436
696,6041497.367671758
698,6041199.302168769
700,6041453.64627868
702,6041828.693192877
704,6040860.42770877
706,6041675.622792104
708,6041571.681644926
710,6041346.454989626
712,6041546.234560798
714,6041858.824615336
716,6041142.5820534965
718,6041286.403162461
720,6041703.1207177285
722,6041807.585318082
724,6041329.8607438
726,6041296.890614847
728,6041527.288726995
730,6041723.792105585
732,6041192.330811199
734,6041150.1016538385
736,6041704.398114255
738,6041255.137810724
740,6041344.973276121
742,6041402.044472554
744,6041509.896928869
746,6041611.23472158
748,6041281.529689905
750,6041392.455248062
752,6040981.1977447625
754,6041295.389267499
756,6041239.4416478425
758,6041271.659960353
760,6041533.037164191
762,6033170.558480699
764,5997309.196911797
766,5919816.184365741
768,5789128.623488824
770,5591227.92157777
772,5331562.926099856
774,5030824.995786329
776,4699258.250554136
778,4346757.545140255
780,3987299.429810042
782,3631624.3336451664
784,3286378.269654552
786,2964560.482130975
788,2677357.907088312
790,2431812.978824052
792,2227005.630354121
794,2056991.6675400746
796,1912122.286436368
798,1783069.2196949078
800,1663500.214270693
802,1548744.6415391257
804,1440089.3704584274
806,1338355.7413583586
808,1246002.4351940232
810,1164641.9993123675
812,1094313.8934356393
814,1033315.1507154639
816,979276.3012057306
818,928884.3489745458
820,880151.1850921786
822,831067.2044299131
824,781134.7456778135
826,731197.4373941015
828,682133.9307999852
830,635157.065687494
832,590767.9318637582
834,549817.9262336656
836,511926.9827578021
838,476508.58827418834
840,442988.8091633684
842,410512.7161371145
844,378885.83903410326
846,347759.8550145639
848,317145.038704723
850,286997.5341464601
852,257814.11993689087
854,229635.74166079867
856,202883.51438950063
858,177548.2583061767
860,153963.78261275878
862,132580.8515415665
864,113288.53811543316
866,96239.40874515912
868,81413.00428997858
870,68826.20859127876
872,58133.754868965356
874,49160.33286656182
876,41666.7751322839
878,35497.06635140222
880,30295.018445045593
882,25695.68578759554
884,21591.37521759164
886,17852.922836174053
888,14389.809163301048
890,11160.697668091325
892,8122.388938503005
894,5540.658797514908
896,3560.8201047046186
898,2067.8082667675035
900,1036.1379326991748
902,389.7262820249188
904,91.05201843704549
906,33.85408597934234
908,10.175341117526877
910,0.4798427012002451
912,-3.482973111878331
914,2.393407046365594
916,-5.54246237681494
918,-0.29287613119402345
920,-2.3379566926154904
922,4.289920058427215
924,0.9442159283387628
926,-2.7336637591896857
928,1.0006701908683229
930,-1.3057717257606596
932,1.5404292547943992
934,4.001179039549514
936,-1.414773894536123
938,3.248233771030033
940,0.4896997775772239
942,3.269850699677664
944,0.8757233738836303
946,1.835094323646329
948,-1.5911823412967454
950,0.22756291881490442
952,1.4645588048001232
954,3.043621082643513
956,0.027056986644400358
958,-0.10659459427895207
960,-0.7023202398106899
962,-2.0064684457895754
964,-3.0020412361544704
966,-2.2327748367148637
968,-2.2451702637504916
970,3.087313082970052
972,-1.474238603491238
974,-1.3750943045639343
976,0.09099228775895851
978,-4.359327552662422
980,0.17173412192045567
982,0.5883557203648353
984,-0.6237451035931326
986,0.24693956783995888
988,-1.1733774690472267
990,1.089032408027303
992,0.5823660453244227
994,0.22070109661222787
996,-2.4283186811864717
998,-1.410528741235163
1000,-1.602076920989911
1002,-0.0723170684905614
1004,-2.2803875418149437
1006,-0.15982876153475076
1008,-1.1915084778267833
1010,-1.9937058314243845
1012,1.598653035792643
1014,-0.6487785841223528
1016,2.324849570691117
1018,0.7091701747258704
