wave,flux
336,3493.063481724901
338,4980.983897657618
340,6785.677286451222
342,8896.070492169812
344,11536.286842326068
346,15359.70573403896
348,20896.941186585125
350,27989.756271980405
352,35804.63459533253
354,43822.64333255941
356,52418.39877296766
358,62078.70429821632
360,72856.31018639548
362,84785.51480091085
364,97414.61605745643
366,111445.37201542497
368,128795.26349448207
370,152029.52098315785
372,187516.90635424046
374,249972.2733813853
376,361187.4259264614
378,531552.8481573567
380,740543.6806054648
382,942004.1746020027
384,1101453.8483827708
386,1223963.0529911749
388,1341287.7150066572
390,1480538.2013566757
392,1653073.7792622487
394,1851681.1719524243
396,2073369.480006775
398,2320884.0231911764
400,2630089.6882564253
402,3036896.763755338
404,3566465.3689289773
406,4198528.534950257
408,4847266.504743415
410,5401972.955667277
412,5777187.400664149
414,5963914.37120275
416,6024426.377114759
418,6026203.157548959
420,6019546.158598612
422,6020430.027847668
424,6026953.690581991
426,6033669.294517113
428,6040223.092371529
430,6041991.138160456
432,6041481.046393697
434,6041485.468908596
436,6041345.849209546
438,6037620.859395379
440,6009493.495108568
442,5944823.286121506
444,5843402.868544681
446,5715178.4507771665
448,5602138.345923122
450,5537334.916363086
452,5532267.088202418
454,5584571.953767307
456,5673716.44013476
458,5771890.13760686
460,5860280.934946014
462,5933070.549624957
464,5983689.23303419
466,6014776.692978237
468,6032267.177013293
470,6040575.748679149
472,6041573.654696397
474,6041401.510950447
476,6041690.282794492
478,6041310.6236348525
480,6041629.393216824
482,6041511.211196535
484,6041564.906363207
486,6041644.409880857
488,6041173.903090987
490,6041588.975388655
492,6041354.990977072
494,6041403.830757332
496,6041253.52791499
498,6041436.410199329
500,6041312.693660464
502,6041325.990034583
504,6041107.927501515
506,6041360.240127195
508,6041365.945837473
510,6041438.368874
512,6041440.760889711
514,6041410.91448121
516,6041534.926620306
518,6041176.421178064
520,6041309.67798128
522,6041357.852927328
524,6041578.8737039715
526,6041776.5318271015
528,6041532.66765346
530,6040989.128522552
532,6041702.773574365
534,6041260.714725081
536,6041062.521731566
538,6041284.437014441
540,6041503.3523646025
542,6041455.110321076
544,6041352.85575247
546,6041137.581120346
548,6041286.024893789
550,6041343.202643296
552,6041353.661166805
554,6041369.63677646
556,6041098.359637164
558,6041407.312363989
560,6041400.619713423
562,6041611.428582286
564,6041704.453151439
566,6041369.917151516
568,6041178.048061788
570,6041251.066090266
572,6041630.284528292
574,6041842.469203554
576,6041752.639929962
578,6041897.23275723
580,6041662.024663459
582,6041336.082206999
584,6041494.212765164
586,6041304.775231982
588,6041313.926288319
590,6041538.7002473185
592,6041391.021571305
594,6041199.402236058
596,6041163.510387734
598,6040917.390308693
600,6041040.1718679685
602,6041300.854537836
604,6041117.435598213
606,6041061.356937839
608,6041794.258885644
610,6041356.471013135
612,6041311.830686392
614,6041859.427263936
616,6041566.531364731
618,6041026.308129181
620,6041638.318074774
622,6041941.925636585
624,6040291.819597564
626,6040861.642715931
628,6042140.665993754
630,6041928.6238156585
632,6041411.051440534
634,6040936.843263033
636,6041036.75818979
638,6041947.140955154
640,6041545.8499462055
642,6040569.022172559
644,6041284.662639292
646,6042757.148737045
648,6043391.059351966
650,6042504.727662985
652,6042290.778180615
654,6042468.510117212
656,6041151.755197429
658,6041123.265571337
660,6042608.683277824
662,6041755.175966175
664,6040574.788248565
666,6041486.940637253
668,6041806.406734336
670,6041420.76823193
672,6042376.435543782
674,6042950.984621384
676,6041911.888334831
678,6041681.801347751
680,6042467.951884994
682,6042287.4823701205
684,6041564.83951963
686,6041424.361223988
688,6041633.412222964
690,6041299.492622343
692,6041349.434590198
694,6041850.228494719
696,6041497.363648296
698,6041199.301802759
700,6041453.646241868
702,6041828.69318908
704,6040860.4277083855
706,6041675.622792066
708,6041571.681644922
710,6041346.454989626
712,6041546.234560798
714,6041858.824615336
716,6041142.5820534965
718,6041286.403162461
720,6041703.1207177285
722,6041807.585318082
724,6041329.8607438
726,6041296.890614847
728,6041527.288726995
730,6041723.792105585
732,6041192.330811199
734,6041150.1016538385
736,6041704.398114255
738,6041255.137810724
740,6041344.973276121
742,6041402.044472554
744,6041509.896928869
746,6041611.23472158
748,6041281.529689905
750,6041392.455248062
752,6040981.1977447625
754,6041295.389267499
756,6041239.4416478425
758,6041271.659960353
760,6041533.037164191
762,6033170.558480699
764,5997309.196911797
766,5919816.184365741
768,5789128.623488824
770,5591227.92157777
772,5331562.926099856
774,5030824.995786329
776,4699258.250554136
778,4346757.545140255
780,3987299.429810042
782,3631624.3336451664
784,3286378.269654552
786,2964560.482130975
788,2677357.907088312
790,2431812.978824052
792,2227005.630354121
794,2056991.6675400746
796,1912122.286436368
798,1783069.2196949078
800,1663500.214270693
802,1548744.6415391257
804,1440089.3704584274
806,1338355.7413583586
808,1246002.4351940232
810,1164641.9993123675
812,1094313.8934356393
814,1033315.1507154639
816,979276.3012057306
818,928884.3489745458
820,880151.1850921786
822,831067.2044299131
824,781134.7456778135
826,731197.4373941015
828,682133.9307999852
830,635157.065687494
832,590767.9318637582
834,549817.9262336656
836,511926.9827578021
838,476508.58827418834
840,442988.8091633684
842,410512.7161371145
844,378885.83903410326
846,347759.8550145639
848,317145.038704723
850,286997.5341464601
852,257814.11993689087
854,229635.74166079867
856,202883.51438950063
858,177548.2583061767
860,153963.78261275878
862,132580.8515415665
864,113288.53811543316
866,96239.40874515912
868,81413.00428997858
870,68826.20859127876
872,58133.754868965356
874,49160.33286656182
876,41666.7751322839
878,35497.06635140222
880,30295.018445045593
882,25695.68578759554
884,21591.37521759164
886,17852.922836174053
888,14389.809163301048
890,11160.697668091325
892,8122.388938503005
894,5540.658797514908
896,3560.8201047046186
898,2067.8082667675035
900,1036.1379326991748
902,389.7262820249188
904,91.05201843704549
906,33.85408597934234
908,10.175341117526877
910,0.4798427012002451
912,-3.482973111878331
914,2.393407046365594
916,-5.54246237681494
918,-0.29287613119402345
920,-2.3379566926154904
922,4.289920058427215
924,0.9442159283387628
926,-2.7336637591896857
928,1.0006701908683229
930,-1.3057717257606596
932,1.5404292547943992
934,4.001179039549514
936,-1.414773894536123
938,3.248233771030033
940,0.4896997775772239
942,3.269850699677664
944,0.8757233738836303
946,1.835094323646329
948,-1.5911823412967454
950,0.22756291881490442
952,1.4645588048001232
954,3.043621082643513
956,0.027056986644400358
958,-0.10659459427895207
960,-0.7023202398106899
962,-2.0064684457895754
964,-3.0020412361544704
966,-2.2327748367148637
968,-2.2451702637504916
970,3.087313082970052
972,-1.474238603491238
974,-1.3750943045639343
976,0.09099228775895851
978,-4.359327552662422
980,0.17173412192045567
982,0.5883557203648353
984,-0.6237451035931326
986,0.24693956783995888
988,-1.1733774690472267
990,1.089032408027303
992,0.5823660453244227
994,0.22070109661222787
996,-2.4283186811864717
998,-1.410528741235163
1000,-1.602076920989911
1002,-0.0723170684905614
1004,-2.2803875418149437
1006,-0.15982876153475076
1008,-1.1915084778267833
1010,-1.9937058314243845
1012,1.598653035792643
1014,-0.6487785841223528
1016,2.324849570691117
1018,0.7091701747258704
