wave,flux
336,522.1842200211205
338,790.8707071934186
340,1004.1740459632047
342,1237.2344532974191
344,1540.5401629212415
346,1984.5264727216736
348,2560.776469687809
350,3246.9031577537776
352,4167.230132799923
354,5411.641381464886
356,6903.2984642948
358,8552.501685706877
360,10391.96978786061
362,12494.450992426999
364,14764.787212267333
366,17371.589235188763
368,20724.584134784825
370,25217.48036309853
372,31414.786198261423
374,40524.45997983676
376,54568.80200675243
378,75821.23645701887
380,105820.28202255178
382,144538.43641246652
384,190126.22168711526
386,237410.26765405084
388,278006.728166941
390,305133.48972072685
392,319560.37165120867
394,328761.4566588296
396,342699.3560170999
398,367183.0961027683
400,405389.2700557581
402,456226.9267668625
404,517458.6835532374
406,586246.4799454868
408,662193.2438989325
410,746990.5452681861
412,842511.6396052123
414,948823.9408217893
416,1063666.2530896773
418,1182866.7185688352
420,1304626.0002159812
422,1429620.3680098893
424,1562277.8898784523
426,1707133.6122123457
428,1865828.1765271293
430,2034269.5244672408
432,2205723.2052685693
434,2373792.505432817
436,2539124.400555731
438,2708284.014885079
440,2892300.278614166
442,3097976.2719705077
444,3327518.1779290605
446,3577045.885450483
448,3840560.9348362074
450,4115374.7660853923
452,4402492.50087608
454,4704146.128808361
456,5009291.7386798095
458,5301355.284075738
460,5560600.806819006
462,5765721.503351934
464,5904824.883885127
466,5986622.638233861
468,6027273.153960116
470,6040352.251729615
472,6041544.792281258
474,6042076.807094171
476,6041421.271054562
478,6041246.2307190895
480,6041217.704694342
482,6041427.854050195
484,6041283.415515497
486,6041459.615127772
488,6041167.941679252
490,6041450.787278357
492,6041341.025588146
494,6041648.535813958
496,6041737.455777333
498,6041664.125231476
500,6041258.233288866
502,6041511.6442992985
504,6041432.653568459
506,6041518.608030852
508,6041497.646022867
510,6041290.25592333
512,6041359.327747716
514,6041309.8053800315
516,6040719.29524985
518,6041218.405425588
520,6041433.933476194
522,6041122.685040949
524,6041524.408575765
526,6041377.135063636
528,6041617.10728694
530,6041323.067489901
532,6041153.085924567
534,6041065.648054815
536,6041565.7586157
538,6041527.494222983
540,6041588.987786421
542,6041546.26741977
544,6041546.333499534
546,6041501.802466085
548,6041833.600521586
550,6041449.328104755
552,6041384.124042494
554,6041728.1856641015
556,6041602.55203798
558,6041300.41594979
560,6041056.741439774
562,6041225.192273469
564,6041201.018316161
566,6040950.286759215
568,6040998.820104949
570,6041196.740947259
572,6041097.6896905815
574,6041186.02703546
576,6041605.092221024
578,6041653.455748345
580,6041142.091543739
582,6040957.319512711
584,6041380.130335906
586,6041585.043412589
588,6041717.684536255
590,6041908.971093933
592,6041438.804958883
594,6041274.2253745515
596,6041535.237063552
598,6041004.751850418
600,6041077.532899508
602,6041309.837734092
604,6041312.832468318
606,6041214.581746519
608,6041182.409766722
610,6041211.960515543
612,6041458.223941045
614,6041576.9176029395
616,6041183.60351761
618,6040873.856192378
620,6041353.559842802
622,6041696.4340426745
624,6040886.772367858
626,6041110.048910512
628,6042139.411112323
630,6042230.3009495055
632,6040468.4240922
634,6040141.06024583
636,6041429.695330802
638,6041444.491428707
640,6040884.148599055
642,6040926.0326912375
644,6041616.896901979
646,6040682.632322581
648,6039616.847014844
650,6041112.4262038125
652,6041747.585263796
654,6040645.4192192955
656,6040023.224779683
658,6040833.616113319
660,6042295.5338232685
662,6042270.8224143805
664,6041480.977008852
666,6040942.730620098
668,6039576.540826787
670,6039919.3476316
672,6041240.836415834
674,6040902.39007197
676,6041513.151899641
678,6041344.624253972
680,6041150.188322394
682,6041410.308869273
684,6041560.0643637255
686,6041447.918769092
688,6040955.818938824
690,6041315.87533891
692,6041350.307975554
694,6041850.281893436
696,6041497.367671758
698,6041199.302168769
700,6041453.64627868
702,6041828.693192877
704,6040860.42770877
706,6041675.622792104
708,6041571.681644926
710,6041346.454989626
712,6041546.234560798
714,6041858.824615336
716,6041142.5820534965
718,6041286.403162461
720,6041703.1207177285
722,6041807.585318082
724,6041329.8607438
726,6041296.890614847
728,6041527.288726995
730,6041723.792105585
732,6041192.330811199
734,6041150.1016538385
736,6041704.398114255
738,6041255.137810724
740,6041344.973276121
742,6041402.044472554
744,6041509.896928869
746,6041611.23472158
748,6041281.529689905
750,6041392.455248062
752,6040981.1977447625
754,6041295.389267499
756,6041239.4416478425
758,6041271.659960353
760,6041533.037164191
762,6033170.558480699
764,5997309.196911797
766,5919816.184365741
768,5789128.623488824
770,5591227.92157777
772,5331562.926099856
774,5030824.995786329
776,4699258.250554136
778,4346757.545140255
780,3987299.429810042
782,3631624.3336451664
784,3286378.269654552
786,2964560.482130975
788,2677357.907088312
790,2431812.978824052
792,2227005.630354121
794,2056991.6675400746
796,1912122.286436368
798,1783069.2196949078
800,1663500.214270693
802,1548744.6415391257
804,1440089.3704584274
806,1338355.7413583586
808,1246002.4351940232
810,1164641.9993123675
812,1094313.8934356393
814,1033315.1507154639
816,979276.3012057306
818,928884.3489745458
820,880151.1850921786
822,831067.2044299131
824,781134.7456778135
826,731197.4373941015
828,682133.9307999852
830,635157.065687494
832,590767.9318637582
834,549817.9262336656
836,511926.9827578021
838,476508.58827418834
840,442988.8091633684
842,410512.7161371145
844,378885.83903410326
846,347759.8550145639
848,317145.038704723
850,286997.5341464601
852,257814.11993689087
854,229635.74166079867
856,202883.51438950063
858,177548.2583061767
860,153963.78261275878
862,132580.8515415665
864,113288.53811543316
866,96239.40874515912
868,81413.00428997858
870,68826.20859127876
872,58133.754868965356
874,49160.33286656182
876,41666.7751322839
878,35497.06635140222
880,30295.018445045593
882,25695.68578759554
884,21591.37521759164
886,17852.922836174053
888,14389.809163301048
890,11160.697668091325
892,8122.388938503005
894,5540.658797514908
896,3560.8201047046186
898,2067.8082667675035
900,1036.1379326991748
902,389.7262820249188
904,91.05201843704549
906,33.85408597934234
908,10.175341117526877
910,0.4798427012002451
912,-3.482973111878331
914,2.393407046365594
916,-5.54246237681494
918,-0.29287613119402345
920,-2.3379566926154904
922,4.289920058427215
924,0.9442159283387628
926,-2.7336637591896857
928,1.0006701908683229
930,-1.3057717257606596
932,1.5404292547943992
934,4.001179039549514
936,-1.414773894536123
938,3.248233771030033
940,0.4896997775772239
942,3.269850699677664
944,0.8757233738836303
946,1.835094323646329
948,-1.5911823412967454
950,0.22756291881490442
952,1.4645588048001232
954,3.043621082643513
956,0.027056986644400358
958,-0.10659459427895207
960,-0.7023202398106899
962,-2.0064684457895754
964,-3.0020412361544704
966,-2.2327748367148637
968,-2.2451702637504916
970,3.087313082970052
972,-1.474238603491238
974,-1.3750943045639343
976,0.09099228775895851
978,-4.359327552662422
980,0.17173412192045567
982,0.5883557203648353
984,-0.6237451035931326
986,0.24693956783995888
988,-1.1733774690472267
990,1.089032408027303
992,0.5823660453244227
994,0.22070109661222787
996,-2.4283186811864717
998,-1.410528741235163
1000,-1.602076920989911
1002,-0.0723170684905614
1004,-2.2803875418149437
1006,-0.15982876153475076
1008,-1.1915084778267833
1010,-1.9937058314243845
1012,1.598653035792643
1014,-0.6487785841223528
1016,2.324849570691117
1018,0.7091701747258704
