wave,flux
336,3204.740853583549
338,5874.363642905069
340,9445.1275787883
342,13859.767857028071
344,18210.516035606
346,23337.26952926683
348,30347.029041818787
350,38708.38344511233
352,48560.08138250559
354,60932.48897661564
356,76155.33159444656
358,93851.59778959189
360,114101.29189087423
362,136754.44924474647
364,160446.82202579145
366,185234.98613335623
368,213299.3363014038
370,246764.3727779362
372,286254.2419370494
374,334056.7985558943
376,400290.86001675343
378,508103.9091755732
380,691079.4847720925
382,977146.8069422144
384,1371271.8684030839
386,1846139.5640858242
388,2357552.416322092
390,2872640.373400767
392,3380570.0313262246
394,3867445.465097461
396,4299060.516634038
398,4640900.698018793
400,4912090.084763387
402,5176255.089628077
404,5459166.665382382
406,5731357.206327308
408,5920387.994782638
410,6014604.19420787
412,6040898.300680114
414,6041309.995851466
416,6041167.807164158
418,6041343.386232201
420,6041235.823434612
422,6041706.764704326
424,6041421.415877573
426,6041577.8192893565
428,6041637.627503853
430,6041297.191470984
432,6041355.005462237
434,6041549.199562846
436,6041397.744294323
438,6041280.145873456
440,6041329.156025827
442,6041026.442052421
444,6041201.149992218
446,6041501.338942793
448,6041429.029749793
450,6041358.817210651
452,6041443.682844078
454,6041168.630277604
456,6041351.341032529
458,6041304.232363692
460,6041463.904666237
462,6041481.129397209
464,6041316.36748327
466,6041560.557162954
468,6041379.616162466
470,6040955.284349946
472,6041191.456799964
474,6041654.730378384
476,6041515.212010472
478,6041628.807014754
480,6041160.449302905
482,6041465.872985614
484,6041164.507942335
486,6041344.905672607
488,6041300.86619673
490,6041724.074466567
492,6041227.052930842
494,6041394.284098531
496,6041127.790544931
498,6041321.375482055
500,6041264.89882431
502,6041050.386615992
504,6041601.750293866
506,6041567.430346477
508,6041666.000269655
510,6041452.321339533
512,6041527.4246266335
514,6041438.2362220315
516,6041153.561389937
518,6041692.4280440705
520,6041484.192288388
522,6041733.082498687
524,6041363.446416067
526,6041632.675142792
528,6041623.711314434
530,6041596.348584095
532,6040793.568916222
534,6041179.4452386545
536,6041621.598275708
538,6041649.3882846385
540,6041730.257614257
542,6041310.376760546
544,6041512.216475247
546,6041340.96975215
548,6041406.820402055
550,6041602.893565162
552,6041597.697126778
554,6041330.06865149
556,6041141.313672563
558,6041209.174614935
560,6041190.792011906
562,6041429.267319757
564,6041596.956677945
566,6041300.519634978
568,6041580.320403154
570,6041830.236072236
572,6041707.16138268
574,6040909.30448746
576,6041201.936923121
578,6041353.658615195
580,6041789.797197486
582,6042014.947549847
584,6041365.242452277
586,6041622.409935548
588,6041345.197216905
590,6041173.485985549
592,6041440.174575535
594,6041526.912725128
596,6041216.796417154
598,6041101.034214813
600,6041320.566981608
602,6041565.074128337
604,6041598.502398374
606,6041436.84047854
608,6041290.423623121
610,6041348.648352049
612,6041284.475404412
614,6041081.44331331
616,6041055.899051754
618,6041193.727235679
620,6040995.489350885
622,6041039.3939162195
624,6042017.082894852
626,6042278.301777193
628,6041824.9306142405
630,6041466.251988863
632,6041487.124526877
634,6041021.755405381
636,6040583.016609916
638,6041587.263851371
640,6043011.01197507
642,6043366.5678456435
644,6041786.15700211
646,6039146.496072258
648,6037576.696195252
650,6038847.0159189375
652,6041349.875084277
654,6042943.769434638
656,6042375.562593776
658,6041605.777284251
660,6041949.180149606
662,6042788.805488132
664,6043380.696257132
666,6042980.895413913
668,6041070.474674945
670,6041562.817918973
672,6041267.232657645
674,6041163.489181532
676,6041536.129385615
678,6041346.243486594
680,6041150.28995837
682,6041410.314774517
684,6041560.064687429
686,6041447.9187860545
688,6040955.81893969
690,6041315.875338955
692,6041350.307975556
694,6041850.281893436
696,6041497.367671758
698,6041199.302168769
700,6041453.64627868
702,6041828.693192877
704,6040860.42770877
706,6041675.622792104
708,6041571.681644926
710,6041346.454989626
712,6041546.234560798
714,6041858.824615336
716,6041142.5820534965
718,6041286.403162461
720,6041703.1207177285
722,6041807.585318082
724,6041329.8607438
726,6041296.890614847
728,6041527.288726995
730,6041723.792105585
732,6041192.330811199
734,6041150.1016538385
736,6041704.398114255
738,6041255.137810724
740,6041344.973276121
742,6041402.044472554
744,6041509.896928869
746,6041611.23472158
748,6041281.529689905
750,6041392.455248062
752,6040981.1977447625
754,6041295.389267499
756,6041239.4416478425
758,6041271.659960353
760,6041533.037164191
762,6033170.558480699
764,5997309.196911797
766,5919816.184365741
768,5789128.623488824
770,5591227.92157777
772,5331562.926099856
774,5030824.995786329
776,4699258.250554136
778,4346757.545140255
780,3987299.429810042
782,3631624.3336451664
784,3286378.269654552
786,2964560.482130975
788,2677357.907088312
790,2431812.978824052
792,2227005.630354121
794,2056991.6675400746
796,1912122.286436368
798,1783069.2196949078
800,1663500.214270693
802,1548744.6415391257
804,1440089.3704584274
806,1338355.7413583586
808,1246002.4351940232
810,1164641.9993123675
812,1094313.8934356393
814,1033315.1507154639
816,979276.3012057306
818,928884.3489745458
820,880151.1850921786
822,831067.2044299131
824,781134.7456778135
826,731197.4373941015
828,682133.9307999852
830,635157.065687494
832,590767.9318637582
834,549817.9262336656
836,511926.9827578021
838,476508.58827418834
840,442988.8091633684
842,410512.7161371145
844,378885.83903410326
846,347759.8550145639
848,317145.038704723
850,286997.5341464601
852,257814.11993689087
854,229635.74166079867
856,202883.51438950063
858,177548.2583061767
860,153963.78261275878
862,132580.8515415665
864,113288.53811543316
866,96239.40874515912
868,81413.00428997858
870,68826.20859127876
872,58133.754868965356
874,49160.33286656182
876,41666.7751322839
878,35497.06635140222
880,30295.018445045593
882,25695.68578759554
884,21591.37521759164
886,17852.922836174053
888,14389.809163301048
890,11160.697668091325
892,8122.388938503005
894,5540.658797514908
896,3560.8201047046186
898,2067.8082667675035
900,1036.1379326991748
902,389.7262820249188
904,91.05201843704549
906,33.85408597934234
908,10.175341117526877
910,0.4798427012002451
912,-3.482973111878331
914,2.393407046365594
916,-5.54246237681494
918,-0.29287613119402345
920,-2.3379566926154904
922,4.289920058427215
924,0.9442159283387628
926,-2.7336637591896857
928,1.0006701908683229
930,-1.3057717257606596
932,1.5404292547943992
934,4.001179039549514
936,-1.414773894536123
938,3.248233771030033
940,0.4896997775772239
942,3.269850699677664
944,0.8757233738836303
946,1.835094323646329
948,-1.5911823412967454
950,0.22756291881490442
952,1.4645588048001232
954,3.043621082643513
956,0.027056986644400358
958,-0.10659459427895207
960,-0.7023202398106899
962,-2.0064684457895754
964,-3.0020412361544704
966,-2.2327748367148637
968,-2.2451702637504916
970,3.087313082970052
972,-1.474238603491238
974,-1.3750943045639343
976,0.09099228775895851
978,-4.359327552662422
980,0.17173412192045567
982,0.5883557203648353
984,-0.6237451035931326
986,0.24693956783995888
988,-1.1733774690472267
990,1.089032408027303
992,0.5823660453244227
994,0.22070109661222787
996,-2.4283186811864717
998,-1.410528741235163
1000,-1.602076920989911
1002,-0.0723170684905614
1004,-2.2803875418149437
1006,-0.15982876153475076
1008,-1.1915084778267833
1010,-1.9937058314243845
1012,1.598653035792643
1014,-0.6487785841223528
1016,2.324849570691117
1018,0.7091701747258704
