wave,flux
336,2215.4154166954277
338,3748.627348917314
340,5625.496678521137
342,8205.448707800528
344,11810.055948352147
346,15740.870919078428
348,19690.61682067154
350,24122.277166206757
352,29886.79346868685
354,37396.27771361794
356,45910.39090383056
358,55026.921830050356
360,65382.05396023648
362,77730.87234828837
364,92104.52380625842
366,108122.19455641771
368,125723.03610278064
370,147271.6837424813
372,179349.19059443625
374,231703.9723598102
376,312353.3975598019
378,418706.9241637615
380,539764.2102593123
382,670190.4469205118
384,822408.6899948318
386,1015823.6184507501
388,1256974.2467208705
390,1534093.9517244876
392,1838963.193750152
394,2170382.6313864226
396,2532264.685551721
398,2907606.4794914015
400,3264043.2947627716
402,3554561.615285723
404,3753409.626852116
406,3875798.2002736614
408,3979498.0962048895
410,4141859.520101292
412,4416077.46512977
414,4802022.541724305
416,5227699.777871789
418,5604732.6490477575
420,5859187.592421223
422,5989322.766269571
424,6035904.082428497
426,6041693.787271373
428,6041033.387633231
430,6040964.166252052
432,6041399.932600346
434,6041549.262126028
436,6041164.507431329
438,6041129.328581723
440,6041243.61614788
442,6041239.359883085
444,6041426.179369293
446,6041558.096373431
448,6041415.044093194
450,6041362.238806149
452,6041980.154733498
454,6041493.868937718
456,6041539.94723685
458,6041304.31836504
460,6041397.756414603
462,6041092.973865383
464,6041297.1259148205
466,6041022.309972442
468,6041510.105985596
470,6041570.292125403
472,6041452.785470484
474,6041193.133554787
476,6041403.644191837
478,6041249.777010553
480,6041842.039220968
482,6041324.993566945
484,6041370.747108208
486,6041351.578581294
488,6041640.948383066
490,6041541.140772378
492,6041335.293136996
494,6041325.7512760805
496,6041114.1251729615
498,6041530.323604155
500,6041250.314494044
502,6041320.618620692
504,6041461.151651454
506,6041365.961762314
508,6041648.669116767
510,6041311.170769225
512,6041691.446167112
514,6041474.913696103
516,6041606.906830743
518,6041567.678993021
520,6041883.714481698
522,6041091.961223855
524,6041136.104699829
526,6041452.163974502
528,6041028.73259926
530,6041746.738625786
532,6041440.709763645
534,6041719.103908495
536,6041307.396820545
538,6041330.76016742
540,6041411.614586174
542,6041276.5480057355
544,6041399.140146343
546,6041468.453115806
548,6041619.533346974
550,6041582.282192966
552,6041193.166519319
554,6041280.002525162
556,6041791.686642414
558,6041914.388670017
560,6041318.30310595
562,6041287.679385858
564,6041609.126415156
566,6041780.597339638
568,6041260.253553864
570,6041468.309693552
572,6041678.183785935
574,6041471.042685252
576,6041198.208657208
578,6041381.930223252
580,6041471.188271179
582,6041364.648099794
584,6041434.19876118
586,6041376.9977859175
588,6041367.035032615
590,6041365.199270145
592,6041089.009035168
594,6041038.643944268
596,6041312.221155899
598,6041270.43410663
600,6041317.376698427
602,6041817.62788514
604,6041838.934300625
606,6041182.096427348
608,6041055.73087044
610,6041671.872067008
612,6041847.961542081
614,6041497.008346539
616,6041297.76550152
618,6040972.775972674
620,6041778.033289887
622,6042411.843265995
624,6041022.598823385
626,6041102.714158279
628,6042063.379135852
630,6042172.257825856
632,6041607.893849472
634,6041112.139388541
636,6041014.051309761
638,6041057.051847119
640,6040843.57141176
642,6041318.995560838
644,6042828.915801763
646,6041328.14914442
648,6038979.776838429
650,6040478.704282995
652,6041818.143193796
654,6041398.863044718
656,6041145.078597329
658,6041511.035811353
660,6041551.250920239
662,6041377.486946212
664,6041484.487485335
666,6041443.750092547
668,6041107.99104892
670,6041563.760999667
672,6041267.206276448
674,6041163.483843256
676,6041536.128915831
678,6041346.24345349
680,6041150.289956291
682,6041410.314774397
684,6041560.064687422
686,6041447.9187860545
688,6040955.81893969
690,6041315.875338955
692,6041350.307975556
694,6041850.281893436
696,6041497.367671758
698,6041199.302168769
700,6041453.64627868
702,6041828.693192877
704,6040860.42770877
706,6041675.622792104
708,6041571.681644926
710,6041346.454989626
712,6041546.234560798
714,6041858.824615336
716,6041142.5820534965
718,6041286.403162461
720,6041703.1207177285
722,6041807.585318082
724,6041329.8607438
726,6041296.890614847
728,6041527.288726995
730,6041723.792105585
732,6041192.330811199
734,6041150.1016538385
736,6041704.398114255
738,6041255.137810724
740,6041344.973276121
742,6041402.044472554
744,6041509.896928869
746,6041611.23472158
748,6041281.529689905
750,6041392.455248062
752,6040981.1977447625
754,6041295.389267499
756,6041239.4416478425
758,6041271.659960353
760,6041533.037164191
762,6033170.558480699
764,5997309.196911797
766,5919816.184365741
768,5789128.623488824
770,5591227.92157777
772,5331562.926099856
774,5030824.995786329
776,4699258.250554136
778,4346757.545140255
780,3987299.429810042
782,3631624.3336451664
784,3286378.269654552
786,2964560.482130975
788,2677357.907088312
790,2431812.978824052
792,2227005.630354121
794,2056991.6675400746
796,1912122.286436368
798,1783069.2196949078
800,1663500.214270693
802,1548744.6415391257
804,1440089.3704584274
806,1338355.7413583586
808,1246002.4351940232
810,1164641.9993123675
812,1094313.8934356393
814,1033315.1507154639
816,979276.3012057306
818,928884.3489745458
820,880151.1850921786
822,831067.2044299131
824,781134.7456778135
826,731197.4373941015
828,682133.9307999852
830,635157.065687494
832,590767.9318637582
834,549817.9262336656
836,511926.9827578021
838,476508.58827418834
840,442988.8091633684
842,410512.7161371145
844,378885.83903410326
846,347759.8550145639
848,317145.038704723
850,286997.5341464601
852,257814.11993689087
854,229635.74166079867
856,202883.51438950063
858,177548.2583061767
860,153963.78261275878
862,132580.8515415665
864,113288.53811543316
866,96239.40874515912
868,81413.00428997858
870,68826.20859127876
872,58133.754868965356
874,49160.33286656182
876,41666.7751322839
878,35497.06635140222
880,30295.018445045593
882,25695.68578759554
884,21591.37521759164
886,17852.922836174053
888,14389.809163301048
890,11160.697668091325
892,8122.388938503005
894,5540.658797514908
896,3560.8201047046186
898,2067.8082667675035
900,1036.1379326991748
902,389.7262820249188
904,91.05201843704549
906,33.85408597934234
908,10.175341117526877
910,0.4798427012002451
912,-3.482973111878331
914,2.393407046365594
916,-5.54246237681494
918,-0.29287613119402345
920,-2.3379566926154904
922,4.289920058427215
924,0.9442159283387628
926,-2.7336637591896857
928,1.0006701908683229
930,-1.3057717257606596
932,1.5404292547943992
934,4.001179039549514
936,-1.414773894536123
938,3.248233771030033
940,0.4896997775772239
942,3.269850699677664
944,0.8757233738836303
946,1.835094323646329
948,-1.5911823412967454
950,0.22756291881490442
952,1.4645588048001232
954,3.043621082643513
956,0.027056986644400358
958,-0.10659459427895207
960,-0.7023202398106899
962,-2.0064684457895754
964,-3.0020412361544704
966,-2.2327748367148637
968,-2.2451702637504916
970,3.087313082970052
972,-1.474238603491238
974,-1.3750943045639343
976,0.09099228775895851
978,-4.359327552662422
980,0.17173412192045567
982,0.5883557203648353
984,-0.6237451035931326
986,0.24693956783995888
988,-1.1733774690472267
990,1.089032408027303
992,0.5823660453244227
994,0.22070109661222787
996,-2.4283186811864717
998,-1.410528741235163
1000,-1.602076920989911
1002,-0.0723170684905614
1004,-2.2803875418149437
1006,-0.15982876153475076
1008,-1.1915084778267833
1010,-1.9937058314243845
1012,1.598653035792643
1014,-0.6487785841223528
1016,2.324849570691117
1018,0.7091701747258704
