wave,flux
336,-5.8491229423193225
338,1.469009864258427
340,3.435991233940741
342,-3.861915162556428
344,0.39027342082772926
346,1.9081581282702733
348,2.0983454133562773
350,1.5490959451484012
352,-0.1516491967058923
354,-4.256078299675168
356,-0.357376447177576
358,112.9795529658042
360,784.9773458395251
362,2097.8834757190034
364,3416.667060431689
366,4427.137991015136
368,5736.596343184301
370,8112.572489611413
372,11551.7012891238
374,15130.981407904943
376,18557.82195783253
378,21598.644415555253
380,24524.446932765473
382,27825.497987613217
384,32660.168892811427
386,39434.72350071516
388,47613.112500167954
390,58106.41290521942
392,76307.60638900191
394,102891.49288699802
396,133423.3491981706
398,157688.03719472673
400,174997.36471837244
402,188032.83086828154
404,201800.97436456874
406,216934.9344334413
408,233885.46626955213
410,253337.53882929054
412,276447.18753197807
414,303618.67446400336
416,335856.38217948563
418,377230.222489175
420,436930.80141399003
422,530402.8455463083
424,675537.3400314121
426,884138.0801624705
428,1151014.0538609738
430,1447592.4299304397
432,1727990.1540296914
434,1950848.3519273733
436,2101862.0706041753
438,2205297.7325103055
440,2315191.1937905457
442,2487770.441834749
444,2756094.7992547546
446,3113701.1179402256
448,3517816.9930337374
450,3907873.7433273527
452,4228500.662034538
454,4448905.871065754
456,4570081.162255388
458,4611612.466620045
460,4607242.088271878
462,4592339.617499496
464,4598543.98300075
466,4659756.3490041
468,4789567.944558272
470,4981042.028483544
472,5218154.296139318
474,5470864.890421017
476,5691011.489197562
478,5853221.852709211
480,5961107.225426895
482,6020255.896253238
484,6040582.878799043
486,6041275.073001441
488,6041685.193692332
490,6041102.278723673
492,6041564.565700352
494,6041552.949641189
496,6041580.423926543
498,6041668.546296084
500,6041622.761796721
502,6041593.457645308
504,6041621.358890317
506,6041609.664889921
508,6041571.16066495
510,6041313.676172711
512,6041342.380989983
514,6041482.590328642
516,6041709.694204757
518,6040718.74428552
520,6041360.053716791
522,6041256.216458966
524,6041129.444833228
526,6041679.919771313
528,6041461.446025727
530,6041282.843217827
532,6041697.959219325
534,6041547.405390944
536,6040926.902216647
538,6041216.341078263
540,6041713.431419403
542,6041217.932439814
544,6041505.267814964
546,6041517.383736779
548,6041566.104309154
550,6041561.716952085
552,6041334.341605988
554,6041628.142137394
556,6041402.091082938
558,6041337.364244322
560,6041686.715311396
562,6041571.714235957
564,6041465.487120854
566,6041319.48939
568,6041540.972928847
570,6041458.403031816
572,6041458.159161279
574,6041300.289632108
576,6041347.903896352
578,6041465.260255275
580,6041440.659220646
582,6041427.1190454215
584,6041399.040369258
586,6041276.431178981
588,6041498.62714963
590,6041477.730959604
592,6041483.61638445
594,6041460.5526787285
596,6041448.120802578
598,6041672.753645448
600,6041403.049362337
602,6041296.1833899
604,6041131.001665767
606,6040947.711821266
608,6041292.819387922
610,6041234.038483195
612,6041421.476653568
614,6041714.2046438325
616,6041415.007477126
618,6041302.221458484
620,6041675.357599239
622,6041580.08881106
624,6040642.559672562
626,6041649.564987449
628,6042692.731401692
630,6042027.770495079
632,6041493.284239231
634,6041868.274281758
636,6042067.029306668
638,6040916.511273785
640,6041338.142366995
642,6042415.258434369
644,6041476.754686397
646,6041268.231402563
648,6042437.073570658
650,6043320.121818619
652,6042594.090749133
654,6041766.314075249
656,6043142.21366507
658,6042090.655880673
660,6038249.92160072
662,6038007.410595041
664,6039797.926609831
666,6040701.724691744
668,6042942.534050258
670,6044653.629860782
672,6041500.162007751
674,6038418.570760656
676,6039621.834199283
678,6041297.800670511
680,6042828.167305519
682,6046133.396832631
684,6042782.53082574
686,6041513.034737327
688,6040964.568609116
690,6041270.292496055
692,6041317.797331936
694,6041848.294195054
696,6041497.217903534
698,6041199.288544536
700,6041453.644908426
702,6041828.693051532
704,6040860.427694412
706,6041675.622790694
708,6041571.6816447945
710,6041346.454989615
712,6041546.234560797
714,6041858.824615336
716,6041142.5820534965
718,6041286.403162461
720,6041703.1207177285
722,6041807.585318082
724,6041329.8607438
726,6041296.890614847
728,6041527.288726995
730,6041723.792105585
732,6041192.330811199
734,6041150.1016538385
736,6041704.398114255
738,6041255.137810724
740,6041344.973276121
742,6041402.044472554
744,6041509.896928869
746,6041611.23472158
748,6041281.529689905
750,6041392.455248062
752,6040981.1977447625
754,6041295.389267499
756,6041239.4416478425
758,6041271.659960353
760,6041533.037164191
762,6033170.558480699
764,5997309.196911797
766,5919816.184365741
768,5789128.623488824
770,5591227.92157777
772,5331562.926099856
774,5030824.995786329
776,4699258.250554136
778,4346757.545140255
780,3987299.429810042
782,3631624.3336451664
784,3286378.269654552
786,2964560.482130975
788,2677357.907088312
790,2431812.978824052
792,2227005.630354121
794,2056991.6675400746
796,1912122.286436368
798,1783069.2196949078
800,1663500.214270693
802,1548744.6415391257
804,1440089.3704584274
806,1338355.7413583586
808,1246002.4351940232
810,1164641.9993123675
812,1094313.8934356393
814,1033315.1507154639
816,979276.3012057306
818,928884.3489745458
820,880151.1850921786
822,831067.2044299131
824,781134.7456778135
826,731197.4373941015
828,682133.9307999852
830,635157.065687494
832,590767.9318637582
834,549817.9262336656
836,511926.9827578021
838,476508.58827418834
840,442988.8091633684
842,410512.7161371145
844,378885.83903410326
846,347759.8550145639
848,317145.038704723
850,286997.5341464601
852,257814.11993689087
854,229635.74166079867
856,202883.51438950063
858,177548.2583061767
860,153963.78261275878
862,132580.8515415665
864,113288.53811543316
866,96239.40874515912
868,81413.00428997858
870,68826.20859127876
872,58133.754868965356
874,49160.33286656182
876,41666.7751322839
878,35497.06635140222
880,30295.018445045593
882,25695.68578759554
884,21591.37521759164
886,17852.922836174053
888,14389.809163301048
890,11160.697668091325
892,8122.388938503005
894,5540.658797514908
896,3560.8201047046186
898,2067.8082667675035
900,1036.1379326991748
902,389.7262820249188
904,91.05201843704549
906,33.85408597934234
908,10.175341117526877
910,0.4798427012002451
912,-3.482973111878331
914,2.393407046365594
916,-5.54246237681494
918,-0.29287613119402345
920,-2.3379566926154904
922,4.289920058427215
924,0.9442159283387628
926,-2.7336637591896857
928,1.0006701908683229
930,-1.3057717257606596
932,1.5404292547943992
934,4.001179039549514
936,-1.414773894536123
938,3.248233771030033
940,0.4896997775772239
942,3.269850699677664
944,0.8757233738836303
946,1.835094323646329
948,-1.5911823412967454
950,0.22756291881490442
952,1.4645588048001232
954,3.043621082643513
956,0.027056986644400358
958,-0.10659459427895207
960,-0.7023202398106899
962,-2.0064684457895754
964,-3.0020412361544704
966,-2.2327748367148637
968,-2.2451702637504916
970,3.087313082970052
972,-1.474238603491238
974,-1.3750943045639343
976,0.09099228775895851
978,-4.359327552662422
980,0.17173412192045567
982,0.5883557203648353
984,-0.6237451035931326
986,0.24693956783995888
988,-1.1733774690472267
990,1.089032408027303
992,0.5823660453244227
994,0.22070109661222787
996,-2.4283186811864717
998,-1.410528741235163
1000,-1.602076920989911
1002,-0.0723170684905614
1004,-2.2803875418149437
1006,-0.15982876153475076
1008,-1.1915084778267833
1010,-1.9937058314243845
1012,1.598653035792643
1014,-0.6487785841223528
1016,2.324849570691117
1018,0.7091701747258704
