wave,flux
336,2606.499509738784
338,3381.420071329789
340,4496.30314713081
342,5915.428641091258
344,7510.739783416914
346,9359.625812336217
348,11487.007699707416
350,13987.429316716383
352,16982.424179351823
354,20449.43795793275
356,24213.685456619238
358,28042.271132730573
360,31680.60547702921
362,35108.53473462844
364,39025.416798189384
366,44620.5573805269
368,53166.51031206605
370,66703.26696164864
372,91417.01151098368
374,140120.0546684275
376,226681.99519285967
378,352584.7581258256
380,496584.98655038374
382,622811.7931709293
384,704701.2915684356
386,743662.1098517063
388,764348.7753177437
390,797389.4803120709
392,861561.4174036853
394,956954.7862121469
396,1068685.366741083
398,1178253.5348231501
400,1275631.8311711233
402,1358536.9730881916
404,1428535.2280006185
406,1485865.8518135045
408,1529824.810183917
410,1560661.4152195263
412,1581873.9398327044
414,1600126.5785555523
416,1623183.5625886035
418,1656338.191325813
420,1700786.2585659835
422,1749458.1329212452
424,1788934.1462742426
426,1805295.9439375573
428,1791981.4078940223
430,1758795.000637518
432,1730957.3360562113
434,1740241.4876872734
436,1811774.9536365045
438,1953425.2061429797
440,2156614.8717541834
442,2400084.6857833294
444,2661951.0727827325
446,2928490.000695795
448,3197209.8770334204
450,3472384.59985335
452,3758627.8026030413
454,4056760.0887531294
456,4360240.045553014
458,4653752.358977976
460,4924472.3784183785
462,5164100.933878818
464,5367835.08940697
466,5537342.989042314
468,5677722.900945478
470,5792630.970570024
472,5883878.928653597
474,5951152.803312012
476,5995599.894496927
478,6022823.101349795
480,6036198.860497536
482,6041072.953446979
484,6041272.2775294045
486,6041818.913235987
488,6041302.693427271
490,6041871.273925746
492,6041776.195151185
494,6041059.100749075
496,6041916.328127435
498,6040914.119966656
500,6041570.704037368
502,6041410.3324544
504,6041110.5983910365
506,6041496.402644068
508,6041358.6676530335
510,6041289.957115382
512,6041174.654887613
514,6041569.912977846
516,6041348.572671138
518,6041305.457940689
520,6041555.7546023335
522,6041364.364831567
524,6041796.516362085
526,6041327.542685738
528,6041440.129269214
530,6040922.066041652
532,6041556.984817108
534,6041407.1267066635
536,6041599.112372236
538,6041292.940612786
540,6041441.601123243
542,6041290.880204032
544,6041460.941307487
546,6041420.96838198
548,6041468.816003026
550,6041473.029103596
552,6041597.760903833
554,6041401.137260657
556,6041849.020746701
558,6041389.370105663
560,6041295.571163582
562,6041541.9982041055
564,6040831.168549782
566,6041385.819606611
568,6041421.502279044
570,6041837.745076155
572,6041229.807066911
574,6041939.307363945
576,6041744.6174135525
578,6041388.414805457
580,6041405.1370037375
582,6041265.990481783
584,6041103.9212930985
586,6041221.646674025
588,6041872.985784624
590,6041520.888400356
592,6041319.224456966
594,6041512.823902667
596,6041515.23723535
598,6041486.658455877
600,6041368.552143678
602,6041235.7364894245
604,6041253.963660441
606,6041490.627036118
608,6041732.417549907
610,6041581.503129752
612,6041530.060365956
614,6041635.973193825
616,6041688.776265446
618,6042085.993724766
620,6041820.007734448
622,6040810.995058746
624,6040313.213676604
626,6041186.2558316225
628,6041562.637004309
630,6040869.423733112
632,6041376.232906509
634,6041750.490393368
636,6041470.220267581
638,6041551.0661825035
640,6041941.717030839
642,6042423.86211467
644,6042834.127332257
646,6043010.60234347
648,6042791.37680818
650,6042014.540386259
652,6041722.603492129
654,6041397.696625224
656,6041151.180505524
658,6041511.428877001
660,6041551.262221199
662,6041377.486710615
664,6041484.48743965
666,6041443.750089369
668,6041107.991048773
670,6041563.760999665
672,6041267.2062764475
674,6041163.483843256
676,6041536.128915831
678,6041346.24345349
680,6041150.289956291
682,6041410.314774397
684,6041560.064687422
686,6041447.9187860545
688,6040955.81893969
690,6041315.875338955
692,6041350.307975556
694,6041850.281893436
696,6041497.367671758
698,6041199.302168769
700,6041453.64627868
702,6041828.693192877
704,6040860.42770877
706,6041675.622792104
708,6041571.681644926
710,6041346.454989626
712,6041546.234560798
714,6041858.824615336
716,6041142.5820534965
718,6041286.403162461
720,6041703.1207177285
722,6041807.585318082
724,6041329.8607438
726,6041296.890614847
728,6041527.288726995
730,6041723.792105585
732,6041192.330811199
734,6041150.1016538385
736,6041704.398114255
738,6041255.137810724
740,6041344.973276121
742,6041402.044472554
744,6041509.896928869
746,6041611.23472158
748,6041281.529689905
750,6041392.455248062
752,6040981.1977447625
754,6041295.389267499
756,6041239.4416478425
758,6041271.659960353
760,6041533.037164191
762,6033170.558480699
764,5997309.196911797
766,5919816.184365741
768,5789128.623488824
770,5591227.92157777
772,5331562.926099856
774,5030824.995786329
776,4699258.250554136
778,4346757.545140255
780,3987299.429810042
782,3631624.3336451664
784,3286378.269654552
786,2964560.482130975
788,2677357.907088312
790,2431812.978824052
792,2227005.630354121
794,2056991.6675400746
796,1912122.286436368
798,1783069.2196949078
800,1663500.214270693
802,1548744.6415391257
804,1440089.3704584274
806,1338355.7413583586
808,1246002.4351940232
810,1164641.9993123675
812,1094313.8934356393
814,1033315.1507154639
816,979276.3012057306
818,928884.3489745458
820,880151.1850921786
822,831067.2044299131
824,781134.7456778135
826,731197.4373941015
828,682133.9307999852
830,635157.065687494
832,590767.9318637582
834,549817.9262336656
836,511926.9827578021
838,476508.58827418834
840,442988.8091633684
842,410512.7161371145
844,378885.83903410326
846,347759.8550145639
848,317145.038704723
850,286997.5341464601
852,257814.11993689087
854,229635.74166079867
856,202883.51438950063
858,177548.2583061767
860,153963.78261275878
862,132580.8515415665
864,113288.53811543316
866,96239.40874515912
868,81413.00428997858
870,68826.20859127876
872,58133.754868965356
874,49160.33286656182
876,41666.7751322839
878,35497.06635140222
880,30295.018445045593
882,25695.68578759554
884,21591.37521759164
886,17852.922836174053
888,14389.809163301048
890,11160.697668091325
892,8122.388938503005
894,5540.658797514908
896,3560.8201047046186
898,2067.8082667675035
900,1036.1379326991748
902,389.7262820249188
904,91.05201843704549
906,33.85408597934234
908,10.175341117526877
910,0.4798427012002451
912,-3.482973111878331
914,2.393407046365594
916,-5.54246237681494
918,-0.29287613119402345
920,-2.3379566926154904
922,4.289920058427215
924,0.9442159283387628
926,-2.7336637591896857
928,1.0006701908683229
930,-1.3057717257606596
932,1.5404292547943992
934,4.001179039549514
936,-1.414773894536123
938,3.248233771030033
940,0.4896997775772239
942,3.269850699677664
944,0.8757233738836303
946,1.835094323646329
948,-1.5911823412967454
950,0.22756291881490442
952,1.4645588048001232
954,3.043621082643513
956,0.027056986644400358
958,-0.10659459427895207
960,-0.7023202398106899
962,-2.0064684457895754
964,-3.0020412361544704
966,-2.2327748367148637
968,-2.2451702637504916
970,3.087313082970052
972,-1.474238603491238
974,-1.3750943045639343
976,0.09099228775895851
978,-4.359327552662422
980,0.17173412192045567
982,0.5883557203648353
984,-0.6237451035931326
986,0.24693956783995888
988,-1.1733774690472267
990,1.089032408027303
992,0.5823660453244227
994,0.22070109661222787
996,-2.4283186811864717
998,-1.410528741235163
1000,-1.602076920989911
1002,-0.0723170684905614
1004,-2.2803875418149437
1006,-0.15982876153475076
1008,-1.1915084778267833
1010,-1.9937058314243845
1012,1.598653035792643
1014,-0.6487785841223528
1016,2.324849570691117
1018,0.7091701747258704
