wave,flux
336,164.89575109623928
338,319.3043495524994
340,548.4320731218814
342,919.2403969883617
344,1480.1991189458372
346,2218.7604947338477
348,3166.8782665245058
350,4328.495602632084
352,5732.064123491517
354,7446.203445024864
356,9505.382194654954
358,11915.500294551639
360,14774.36657546874
362,18204.500117706983
364,22229.42104929841
366,26973.343361573825
368,32659.366818077313
370,39440.30062640416
372,47421.20424069324
374,56811.69139062784
376,68330.85061634766
378,82857.06474388222
380,101136.5227282046
382,123793.00913939787
384,151882.54779580756
386,186103.75001719655
388,227361.25368591456
390,277040.536988912
392,337654.0608314986
394,411503.7282140023
396,499386.3066656145
398,599643.8128067666
400,709828.7193951067
402,826637.1658364589
404,948652.9209051174
406,1076437.8297340828
408,1212305.7777024563
410,1357357.9787676889
412,1510399.4335600769
414,1668990.9620530717
416,1831499.134977615
418,1997802.8537517104
420,2169901.0898965783
422,2350203.3462604717
424,2542729.365215151
426,2750704.7262068912
428,2976877.3071343857
430,3218660.594478784
432,3473531.078166028
434,3738438.9231923535
436,4014928.900630458
438,4306480.799312527
440,4619771.977743872
442,4949076.9100399185
444,5269495.871447854
446,5554373.071074208
448,5776572.851995799
450,5920491.274328837
452,5999541.419108153
454,6033453.948374126
456,6040983.216964434
458,6041834.993676561
460,6041228.839471353
462,6041633.229016246
464,6041324.802347011
466,6041583.382497209
468,6041512.244847106
470,6041680.105771465
472,6041146.079091966
474,6041772.047243581
476,6041290.07973966
478,6041372.957817805
480,6041508.559083006
482,6041356.418582091
484,6041401.634350699
486,6041745.947561266
488,6041427.158175347
490,6041824.756050062
492,6041432.954321111
494,6041588.500890528
496,6041365.109728424
498,6041322.790228272
500,6041241.475221142
502,6041501.848599405
504,6041296.734951597
506,6041340.639942194
508,6041590.271681325
510,6041342.455998783
512,6041523.541674425
514,6041418.626130755
516,6041312.2527206065
518,6041653.805883886
520,6041134.542780951
522,6041348.339174669
524,6041424.557324163
526,6041121.563479283
528,6041281.038814567
530,6041496.919544956
532,6041511.334534811
534,6041325.013035428
536,6041560.219792268
538,6041853.3955762815
540,6041484.62202396
542,6041225.883105195
544,6041636.322711399
546,6041523.90890999
548,6041137.833083176
550,6041225.43277539
552,6041510.916483031
554,6041118.37167945
556,6041351.612820682
558,6041981.383835259
560,6041485.171725137
562,6041443.725157915
564,6041415.527307262
566,6041478.486095876
568,6041320.618092043
570,6041314.817770862
572,6041568.7247229
574,6041313.81962633
576,6041673.3277728185
578,6041573.382873167
580,6041068.397030938
582,6041225.843633309
584,6041694.480571158
586,6041558.283472987
588,6041033.903550342
590,6041036.262649773
592,6041307.566066077
594,6041198.9918438895
596,6041048.465352836
598,6041553.7628871435
600,6041902.323332908
602,6041516.361627534
604,6041317.828811024
606,6041510.069286805
608,6041245.272089208
610,6041312.734727435
612,6041484.473627833
614,6041486.977336203
616,6041310.999647787
618,6040954.556978909
620,6041837.388372578
622,6042839.044569173
624,6041685.861422098
626,6040212.627068147
628,6040039.297632918
630,6041149.453023996
632,6041944.072699106
634,6041430.208038156
636,6040600.625820919
638,6041133.39232415
640,6041442.784688827
642,6040985.336994514
644,6040671.277654462
646,6041545.24519452
648,6042651.606173546
650,6042342.814348254
652,6041619.791860479
654,6041301.10119788
656,6041469.702910227
658,6041745.339758417
660,6041556.786391944
662,6041377.371546221
664,6041484.465107638
666,6041443.748536198
668,6041107.990976807
670,6041563.760997856
672,6041267.206276498
674,6041163.483843266
676,6041536.128915832
678,6041346.243453491
680,6041150.289956291
682,6041410.314774397
684,6041560.064687422
686,6041447.9187860545
688,6040955.81893969
690,6041315.875338955
692,6041350.307975556
694,6041850.281893436
696,6041497.367671758
698,6041199.302168769
700,6041453.64627868
702,6041828.693192877
704,6040860.42770877
706,6041675.622792104
708,6041571.681644926
710,6041346.454989626
712,6041546.234560798
714,6041858.824615336
716,6041142.5820534965
718,6041286.403162461
720,6041703.1207177285
722,6041807.585318082
724,6041329.8607438
726,6041296.890614847
728,6041527.288726995
730,6041723.792105585
732,6041192.330811199
734,6041150.1016538385
736,6041704.398114255
738,6041255.137810724
740,6041344.973276121
742,6041402.044472554
744,6041509.896928869
746,6041611.23472158
748,6041281.529689905
750,6041392.455248062
752,6040981.1977447625
754,6041295.389267499
756,6041239.4416478425
758,6041271.659960353
760,6041533.037164191
762,6033170.558480699
764,5997309.196911797
766,5919816.184365741
768,5789128.623488824
770,5591227.92157777
772,5331562.926099856
774,5030824.995786329
776,4699258.250554136
778,4346757.545140255
780,3987299.429810042
782,3631624.3336451664
784,3286378.269654552
786,2964560.482130975
788,2677357.907088312
790,2431812.978824052
792,2227005.630354121
794,2056991.6675400746
796,1912122.286436368
798,1783069.2196949078
800,1663500.214270693
802,1548744.6415391257
804,1440089.3704584274
806,1338355.7413583586
808,1246002.4351940232
810,1164641.9993123675
812,1094313.8934356393
814,1033315.1507154639
816,979276.3012057306
818,928884.3489745458
820,880151.1850921786
822,831067.2044299131
824,781134.7456778135
826,731197.4373941015
828,682133.9307999852
830,635157.065687494
832,590767.9318637582
834,549817.9262336656
836,511926.9827578021
838,476508.58827418834
840,442988.8091633684
842,410512.7161371145
844,378885.83903410326
846,347759.8550145639
848,317145.038704723
850,286997.5341464601
852,257814.11993689087
854,229635.74166079867
856,202883.51438950063
858,177548.2583061767
860,153963.78261275878
862,132580.8515415665
864,113288.53811543316
866,96239.40874515912
868,81413.00428997858
870,68826.20859127876
872,58133.754868965356
874,49160.33286656182
876,41666.7751322839
878,35497.06635140222
880,30295.018445045593
882,25695.68578759554
884,21591.37521759164
886,17852.922836174053
888,14389.809163301048
890,11160.697668091325
892,8122.388938503005
894,5540.658797514908
896,3560.8201047046186
898,2067.8082667675035
900,1036.1379326991748
902,389.7262820249188
904,91.05201843704549
906,33.85408597934234
908,10.175341117526877
910,0.4798427012002451
912,-3.482973111878331
914,2.393407046365594
916,-5.54246237681494
918,-0.29287613119402345
920,-2.3379566926154904
922,4.289920058427215
924,0.9442159283387628
926,-2.7336637591896857
928,1.0006701908683229
930,-1.3057717257606596
932,1.5404292547943992
934,4.001179039549514
936,-1.414773894536123
938,3.248233771030033
940,0.4896997775772239
942,3.269850699677664
944,0.8757233738836303
946,1.835094323646329
948,-1.5911823412967454
950,0.22756291881490442
952,1.4645588048001232
954,3.043621082643513
956,0.027056986644400358
958,-0.10659459427895207
960,-0.7023202398106899
962,-2.0064684457895754
964,-3.0020412361544704
966,-2.2327748367148637
968,-2.2451702637504916
970,3.087313082970052
972,-1.474238603491238
974,-1.3750943045639343
976,0.09099228775895851
978,-4.359327552662422
980,0.17173412192045567
982,0.5883557203648353
984,-0.6237451035931326
986,0.24693956783995888
988,-1.1733774690472267
990,1.089032408027303
992,0.5823660453244227
994,0.22070109661222787
996,-2.4283186811864717
998,-1.410528741235163
1000,-1.602076920989911
1002,-0.0723170684905614
1004,-2.2803875418149437
1006,-0.15982876153475076
1008,-1.1915084778267833
1010,-1.9937058314243845
1012,1.598653035792643
1014,-0.6487785841223528
1016,2.324849570691117
1018,0.7091701747258704
