wave,flux
336,0.4681801140466052
338,1.8077509355690615
340,28.55618987235824
342,347.7621679450714
344,1176.2151674425063
346,2348.792741495124
348,3953.1241718188535
350,6062.627018355935
352,8499.68501380912
354,11543.772781835107
356,15365.993487852367
358,19412.68743913739
360,23603.70674130214
362,28695.922010464277
364,34821.38093942058
366,41791.02419901498
368,49549.56926557127
370,58012.57877352168
372,67409.29488748558
374,77736.97328156747
376,88986.26981769147
378,100958.59016584487
380,113352.67112116989
382,126233.28756352949
384,141125.12461774435
386,159217.96411359683
388,182271.31243708855
390,215324.85510011297
392,271431.80859169934
394,366103.081556929
396,512205.5906812274
398,708748.990962542
400,944252.1066796948
402,1201117.9686334184
404,1469975.4858911922
406,1752043.9731549015
408,2053006.2069940947
410,2369699.0224155183
412,2691841.6958754836
414,3010682.726151911
416,3327721.2980859457
418,3643818.2904690118
420,3947097.480376162
422,4214309.820593494
424,4425959.317777166
426,4584235.8878548965
428,4717464.4291249225
430,4854535.372730045
432,5011268.179854199
434,5175178.965032008
436,5323663.458408642
438,5437341.483818704
440,5510640.817042642
442,5556551.260236835
444,5599888.873857556
446,5656944.23361145
448,5733836.895340639
450,5823996.610733002
452,5910491.32837654
454,5974414.150073022
456,6015654.394694021
458,6035917.883221305
460,6041460.447569526
462,6041413.363238092
464,6041454.61304942
466,6041610.362025864
468,6041463.783511792
470,6041253.487148233
472,6041329.140192994
474,6041400.586388006
476,6041538.463584608
478,6041253.633784405
480,6041356.882621894
482,6041750.140897423
484,6041551.412513371
486,6041456.224996444
488,6041449.306808716
490,6041250.3900912395
492,6041392.163827152
494,6040996.531877677
496,6041544.481064647
498,6041675.505193745
500,6041552.964225265
502,6041592.6497967485
504,6041618.672279044
506,6041691.428457843
508,6041456.0378093915
510,6041283.017995891
512,6040953.304840263
514,6041417.822625082
516,6041384.901328066
518,6041262.944165203
520,6040990.461113154
522,6041045.47096877
524,6041516.84188215
526,6041460.726213711
528,6041203.92964671
530,6040891.484352126
532,6041410.166059558
534,6041739.512553735
536,6041356.766718178
538,6041296.182564532
540,6041439.197757816
542,6041610.048275185
544,6041007.528415205
546,6041589.20398463
548,6041446.371375398
550,6041519.469822807
552,6041493.758782002
554,6041272.637832529
556,6041475.876025813
558,6041404.380199886
560,6041450.548616804
562,6041442.632564316
564,6041373.88868478
566,6041505.603754353
568,6041531.896533126
570,6040901.116585482
572,6041547.346655244
574,6041405.284804388
576,6041710.079077162
578,6041678.459038148
580,6041149.926209252
582,6041042.095560065
584,6041087.918278919
586,6040930.807224953
588,6041403.957999291
590,6041605.61033737
592,6041686.612339917
594,6041582.800653025
596,6041269.782621664
598,6041301.358432224
600,6041663.795353445
602,6041652.840167521
604,6041469.353664223
606,6041332.056031105
608,6041086.898757918
610,6041309.5597700095
612,6041728.833888141
614,6041822.841328919
616,6041620.530033708
618,6041850.101611206
620,6042089.871560996
622,6041865.304553891
624,6041110.77640636
626,6039991.346217132
628,6039593.324307604
630,6040477.293528547
632,6041678.028492254
634,6041503.206116829
636,6040333.284550029
638,6040170.462578681
640,6041144.826898927
642,6042022.334295877
644,6041576.638762163
646,6040766.475832135
648,6040531.969080457
650,6041473.769298983
652,6041709.066981478
654,6041397.6910451865
656,6041151.209696643
658,6041511.4307574015
660,6041551.262275262
662,6041377.4867094895
664,6041484.487439431
666,6041443.750089353
668,6041107.991048773
670,6041563.760999665
672,6041267.2062764475
674,6041163.483843256
676,6041536.128915831
678,6041346.24345349
680,6041150.289956291
682,6041410.314774397
684,6041560.064687422
686,6041447.9187860545
688,6040955.81893969
690,6041315.875338955
692,6041350.307975556
694,6041850.281893436
696,6041497.367671758
698,6041199.302168769
700,6041453.64627868
702,6041828.693192877
704,6040860.42770877
706,6041675.622792104
708,6041571.681644926
710,6041346.454989626
712,6041546.234560798
714,6041858.824615336
716,6041142.5820534965
718,6041286.403162461
720,6041703.1207177285
722,6041807.585318082
724,6041329.8607438
726,6041296.890614847
728,6041527.288726995
730,6041723.792105585
732,6041192.330811199
734,6041150.1016538385
736,6041704.398114255
738,6041255.137810724
740,6041344.973276121
742,6041402.044472554
744,6041509.896928869
746,6041611.23472158
748,6041281.529689905
750,6041392.455248062
752,6040981.1977447625
754,6041295.389267499
756,6041239.4416478425
758,6041271.659960353
760,6041533.037164191
762,6033170.558480699
764,5997309.196911797
766,5919816.184365741
768,5789128.623488824
770,5591227.92157777
772,5331562.926099856
774,5030824.995786329
776,4699258.250554136
778,4346757.545140255
780,3987299.429810042
782,3631624.3336451664
784,3286378.269654552
786,2964560.482130975
788,2677357.907088312
790,2431812.978824052
792,2227005.630354121
794,2056991.6675400746
796,1912122.286436368
798,1783069.2196949078
800,1663500.214270693
802,1548744.6415391257
804,1440089.3704584274
806,1338355.7413583586
808,1246002.4351940232
810,1164641.9993123675
812,1094313.8934356393
814,1033315.1507154639
816,979276.3012057306
818,928884.3489745458
820,880151.1850921786
822,831067.2044299131
824,781134.7456778135
826,731197.4373941015
828,682133.9307999852
830,635157.065687494
832,590767.9318637582
834,549817.9262336656
836,511926.9827578021
838,476508.58827418834
840,442988.8091633684
842,410512.7161371145
844,378885.83903410326
846,347759.8550145639
848,317145.038704723
850,286997.5341464601
852,257814.11993689087
854,229635.74166079867
856,202883.51438950063
858,177548.2583061767
860,153963.78261275878
862,132580.8515415665
864,113288.53811543316
866,96239.40874515912
868,81413.00428997858
870,68826.20859127876
872,58133.754868965356
874,49160.33286656182
876,41666.7751322839
878,35497.06635140222
880,30295.018445045593
882,25695.68578759554
884,21591.37521759164
886,17852.922836174053
888,14389.809163301048
890,11160.697668091325
892,8122.388938503005
894,5540.658797514908
896,3560.8201047046186
898,2067.8082667675035
900,1036.1379326991748
902,389.7262820249188
904,91.05201843704549
906,33.85408597934234
908,10.175341117526877
910,0.4798427012002451
912,-3.482973111878331
914,2.393407046365594
916,-5.54246237681494
918,-0.29287613119402345
920,-2.3379566926154904
922,4.289920058427215
924,0.9442159283387628
926,-2.7336637591896857
928,1.0006701908683229
930,-1.3057717257606596
932,1.5404292547943992
934,4.001179039549514
936,-1.414773894536123
938,3.248233771030033
940,0.4896997775772239
942,3.269850699677664
944,0.8757233738836303
946,1.835094323646329
948,-1.5911823412967454
950,0.22756291881490442
952,1.4645588048001232
954,3.043621082643513
956,0.027056986644400358
958,-0.10659459427895207
960,-0.7023202398106899
962,-2.0064684457895754
964,-3.0020412361544704
966,-2.2327748367148637
968,-2.2451702637504916
970,3.087313082970052
972,-1.474238603491238
974,-1.3750943045639343
976,0.09099228775895851
978,-4.359327552662422
980,0.17173412192045567
982,0.5883557203648353
984,-0.6237451035931326
986,0.24693956783995888
988,-1.1733774690472267
990,1.089032408027303
992,0.5823660453244227
994,0.22070109661222787
996,-2.4283186811864717
998,-1.410528741235163
1000,-1.602076920989911
1002,-0.0723170684905614
1004,-2.2803875418149437
1006,-0.15982876153475076
1008,-1.1915084778267833
1010,-1.9937058314243845
1012,1.598653035792643
1014,-0.6487785841223528
1016,2.324849570691117
1018,0.7091701747258704
