wave,flux
336,4620.543306048762
338,6593.456434186286
340,9886.662391355074
342,14997.676721819664
344,20486.211365753494
346,26254.72497195821
348,33417.48005894369
350,41493.54759167238
352,49813.84720706577
354,58245.08618310446
356,66913.40259532927
358,76684.33353581793
360,88440.33405398445
362,102357.17260310636
364,118906.64902300353
366,139645.93787298503
368,167977.96765009448
370,212784.93640609388
372,294825.8338570518
374,436293.6584295937
376,632241.819792812
378,837605.3948726546
380,1003752.1764314068
382,1123858.1959973865
384,1238194.8953215764
386,1399486.8943870282
388,1647623.7118710969
390,2007551.9336627088
392,2498546.5387929063
394,3105173.7137288493
396,3757181.947038798
398,4343348.53081821
400,4779542.329724706
402,5057999.117114262
404,5240269.699673161
406,5391320.063693162
408,5530268.051556366
410,5618583.408115578
412,5603909.630303935
414,5463485.459048006
416,5224869.919619187
418,4958005.734265321
420,4749612.9017415345
422,4674169.745899585
424,4764570.261556305
426,4996952.881223411
428,5300873.4054724
430,5594380.382014048
432,5818443.173580381
434,5953157.283237673
436,6016920.74640356
438,6038105.882336809
440,6041697.418771986
442,6041335.791629105
444,6041607.288611947
446,6041733.411811613
448,6041271.798414715
450,6041419.812235049
452,6041585.445936451
454,6041468.260498816
456,6041564.102886368
458,6041345.325962546
460,6041468.447359228
462,6041245.538300498
464,6041504.570459143
466,6041777.942548643
468,6041361.001069854
470,6041213.278157023
472,6041276.70251572
474,6041498.653143743
476,6041303.525686681
478,6041556.516089331
480,6041141.441088487
482,6041996.808749455
484,6041169.7187054735
486,6041281.459987762
488,6041134.611793972
490,6041701.421604422
492,6041420.403753022
494,6041355.618021018
496,6041679.183985616
498,6041343.571604715
500,6041335.2300380645
502,6041623.479128344
504,6041482.397077543
506,6041632.959796318
508,6041699.246181124
510,6041521.04013718
512,6041556.9768197
514,6041127.413287334
516,6041363.546620058
518,6041589.546320673
520,6041287.365595675
522,6041594.157067258
524,6041147.708966828
526,6041195.890616235
528,6041258.84859891
530,6041478.025600227
532,6041508.167473181
534,6041163.149403908
536,6041130.516340175
538,6041142.067318834
540,6041517.910671441
542,6041820.0954332035
544,6041505.086332176
546,6041547.778539962
548,6041286.025957291
550,6041462.927684138
552,6041521.990272311
554,6040754.036235506
556,6040978.573301093
558,6041271.33721263
560,6041432.44349967
562,6041423.029627748
564,6041067.981035498
566,6041104.026776417
568,6041435.108397023
570,6041685.893728197
572,6041497.70014363
574,6041197.052470088
576,6041213.852941275
578,6041226.038946737
580,6041472.078454841
582,6041675.117011625
584,6041553.109280398
586,6041732.30280554
588,6041735.159184572
590,6041806.323823006
592,6041593.7848756695
594,6041629.185983324
596,6041806.245181392
598,6041373.18001635
600,6041636.192298212
602,6041930.156679297
604,6041586.706170427
606,6041201.64970297
608,6041445.675674122
610,6041068.322060498
612,6041236.537696274
614,6041762.037084226
616,6041319.308651874
618,6040854.165053617
620,6042587.3279314
622,6044457.1381525975
624,6043088.970964421
626,6042033.8506662715
628,6041367.725908674
630,6040657.683619498
632,6041182.514517404
634,6041022.116457731
636,6039921.240134298
638,6039700.434764992
640,6040557.155881657
642,6041283.158882514
644,6041090.179568155
646,6042493.347694968
648,6044009.886977942
650,6042495.4938116865
652,6040592.38138066
654,6040792.373303419
656,6043355.85115321
658,6044180.058076928
660,6042239.399192101
662,6041423.018510388
664,6042059.673678372
666,6042807.786132247
668,6042534.212674163
670,6041908.805602314
672,6042490.900943054
674,6042315.376480173
676,6040322.873910086
678,6039745.525950759
680,6040971.123438648
682,6041537.6564205
684,6041448.829438347
686,6041462.025416767
688,6040956.536299264
690,6041315.911702387
692,6041350.309914141
694,6041850.28201196
696,6041497.367680689
698,6041199.30216958
700,6041453.646278761
702,6041828.693192885
704,6040860.427708771
706,6041675.622792104
708,6041571.681644926
710,6041346.454989626
712,6041546.234560798
714,6041858.824615336
716,6041142.5820534965
718,6041286.403162461
720,6041703.1207177285
722,6041807.585318082
724,6041329.8607438
726,6041296.890614847
728,6041527.288726995
730,6041723.792105585
732,6041192.330811199
734,6041150.1016538385
736,6041704.398114255
738,6041255.137810724
740,6041344.973276121
742,6041402.044472554
744,6041509.896928869
746,6041611.23472158
748,6041281.529689905
750,6041392.455248062
752,6040981.1977447625
754,6041295.389267499
756,6041239.4416478425
758,6041271.659960353
760,6041533.037164191
762,6033170.558480699
764,5997309.196911797
766,5919816.184365741
768,5789128.623488824
770,5591227.92157777
772,5331562.926099856
774,5030824.995786329
776,4699258.250554136
778,4346757.545140255
780,3987299.429810042
782,3631624.3336451664
784,3286378.269654552
786,2964560.482130975
788,2677357.907088312
790,2431812.978824052
792,2227005.630354121
794,2056991.6675400746
796,1912122.286436368
798,1783069.2196949078
800,1663500.214270693
802,1548744.6415391257
804,1440089.3704584274
806,1338355.7413583586
808,1246002.4351940232
810,1164641.9993123675
812,1094313.8934356393
814,1033315.1507154639
816,979276.3012057306
818,928884.3489745458
820,880151.1850921786
822,831067.2044299131
824,781134.7456778135
826,731197.4373941015
828,682133.9307999852
830,635157.065687494
832,590767.9318637582
834,549817.9262336656
836,511926.9827578021
838,476508.58827418834
840,442988.8091633684
842,410512.7161371145
844,378885.83903410326
846,347759.8550145639
848,317145.038704723
850,286997.5341464601
852,257814.11993689087
854,229635.74166079867
856,202883.51438950063
858,177548.2583061767
860,153963.78261275878
862,132580.8515415665
864,113288.53811543316
866,96239.40874515912
868,81413.00428997858
870,68826.20859127876
872,58133.754868965356
874,49160.33286656182
876,41666.7751322839
878,35497.06635140222
880,30295.018445045593
882,25695.68578759554
884,21591.37521759164
886,17852.922836174053
888,14389.809163301048
890,11160.697668091325
892,8122.388938503005
894,5540.658797514908
896,3560.8201047046186
898,2067.8082667675035
900,1036.1379326991748
902,389.7262820249188
904,91.05201843704549
906,33.85408597934234
908,10.175341117526877
910,0.4798427012002451
912,-3.482973111878331
914,2.393407046365594
916,-5.54246237681494
918,-0.29287613119402345
920,-2.3379566926154904
922,4.289920058427215
924,0.9442159283387628
926,-2.7336637591896857
928,1.0006701908683229
930,-1.3057717257606596
932,1.5404292547943992
934,4.001179039549514
936,-1.414773894536123
938,3.248233771030033
940,0.4896997775772239
942,3.269850699677664
944,0.8757233738836303
946,1.835094323646329
948,-1.5911823412967454
950,0.22756291881490442
952,1.4645588048001232
954,3.043621082643513
956,0.027056986644400358
958,-0.10659459427895207
960,-0.7023202398106899
962,-2.0064684457895754
964,-3.0020412361544704
966,-2.2327748367148637
968,-2.2451702637504916
970,3.087313082970052
972,-1.474238603491238
974,-1.3750943045639343
976,0.09099228775895851
978,-4.359327552662422
980,0.17173412192045567
982,0.5883557203648353
984,-0.6237451035931326
986,0.24693956783995888
988,-1.1733774690472267
990,1.089032408027303
992,0.5823660453244227
994,0.22070109661222787
996,-2.4283186811864717
998,-1.410528741235163
1000,-1.602076920989911
1002,-0.0723170684905614
1004,-2.2803875418149437
1006,-0.15982876153475076
1008,-1.1915084778267833
1010,-1.9937058314243845
1012,1.598653035792643
1014,-0.6487785841223528
1016,2.324849570691117
1018,0.7091701747258704
