wave,flux
336,-3.0083829964813233
338,1.682392451328839
340,21.86927098754612
342,143.15727330919592
344,425.23064355887226
346,915.3212683303578
348,1620.749293602624
350,2509.911700816701
352,3602.506980055143
354,4953.970753267231
356,6555.181388709494
358,8417.106617019976
360,10650.96858082739
362,13401.48190074891
364,16735.537288614527
366,20778.213099009132
368,25738.4190623893
370,31663.026128115078
372,38430.73669549416
374,45947.02764060509
376,54230.46555587601
378,63349.99647940173
380,73343.303760663
382,84473.95224612879
384,97187.94340689409
386,112065.33109073964
388,129901.2653057236
390,152991.98766019248
392,185615.39528176837
394,232759.94114206327
396,298330.2335636661
398,383621.9183169405
400,487807.30456019845
402,607670.6396792023
404,740091.1780489226
406,881814.9767362234
408,1031881.2173452254
410,1188960.3443506807
412,1351055.736355117
414,1516179.9136264308
416,1681643.2689337647
418,1847159.916778891
420,2013770.5923746303
422,2184928.11462715
424,2365281.079465921
426,2560688.1994123254
428,2774473.917294389
430,3006680.155553476
432,3255406.2583515397
434,3518095.834101479
436,3795660.642328915
438,4092087.1031141477
440,4412422.471733624
442,4754780.596823596
444,5097629.233654203
446,5414274.779928234
448,5676487.759050957
450,5859780.848566085
452,5968406.334214977
454,6021337.718058548
456,6039357.252524774
458,6041133.584288029
460,6041364.643296463
462,6041206.901635001
464,6041738.564378551
466,6041397.748957895
468,6041083.568334243
470,6041624.241014672
472,6041297.77342587
474,6041088.842656569
476,6041413.140490486
478,6041488.056533969
480,6041401.429041315
482,6041547.0241650855
484,6041391.360991026
486,6041118.811779536
488,6041255.497348714
490,6041509.8429174395
492,6041440.228293446
494,6041478.106886044
496,6041235.575397785
498,6041555.017103066
500,6041595.093373977
502,6041766.599844473
504,6041562.595183009
506,6041374.272184796
508,6041324.758956032
510,6040963.838599313
512,6041609.884501964
514,6041423.259203419
516,6041381.283914086
518,6041470.485553181
520,6041266.087258695
522,6041523.508411502
524,6041826.221276416
526,6041463.812551256
528,6041145.3564756755
530,6041116.148392995
532,6041875.09228129
534,6041384.660886351
536,6041636.794888745
538,6041571.693130478
540,6041491.050095493
542,6041704.621217034
544,6041652.013983959
546,6041512.441023913
548,6041176.491816339
550,6041184.163651978
552,6041039.040765105
554,6041322.895377667
556,6041816.023800497
558,6041437.018227382
560,6041048.6936822105
562,6041367.049041798
564,6040925.666419478
566,6041282.62573765
568,6041362.576946627
570,6041347.495527105
572,6041639.522702279
574,6041316.889899373
576,6041020.996081578
578,6041425.7133874595
580,6041609.27128744
582,6041408.814714298
584,6041360.776212495
586,6041317.398480098
588,6041673.007345058
590,6041154.331095822
592,6041245.857295102
594,6041509.166736509
596,6041361.807998709
598,6041602.442816457
600,6041080.277826647
602,6041195.944273393
604,6041402.425101498
606,6041243.185494532
608,6041493.2505397275
610,6041264.56761199
612,6041278.861038962
614,6041480.205191883
616,6041174.984801966
618,6041058.702221261
620,6041687.968371268
622,6042486.763406402
624,6042583.994431007
626,6042538.3715235265
628,6041565.02362068
630,6040158.253692366
632,6040732.389062167
634,6041396.780191293
636,6040979.47850463
638,6040414.525410848
640,6041046.1680420255
642,6042781.127123902
644,6043810.478834333
646,6041322.6942549385
648,6040317.554774555
650,6041377.602968695
652,6041713.353830105
654,6041397.692812318
656,6041151.20045217
658,6041511.430161901
660,6041551.262258141
662,6041377.486709845
664,6041484.487439501
666,6041443.750089359
668,6041107.991048773
670,6041563.760999665
672,6041267.2062764475
674,6041163.483843256
676,6041536.128915831
678,6041346.24345349
680,6041150.289956291
682,6041410.314774397
684,6041560.064687422
686,6041447.9187860545
688,6040955.81893969
690,6041315.875338955
692,6041350.307975556
694,6041850.281893436
696,6041497.367671758
698,6041199.302168769
700,6041453.64627868
702,6041828.693192877
704,6040860.42770877
706,6041675.622792104
708,6041571.681644926
710,6041346.454989626
712,6041546.234560798
714,6041858.824615336
716,6041142.5820534965
718,6041286.403162461
720,6041703.1207177285
722,6041807.585318082
724,6041329.8607438
726,6041296.890614847
728,6041527.288726995
730,6041723.792105585
732,6041192.330811199
734,6041150.1016538385
736,6041704.398114255
738,6041255.137810724
740,6041344.973276121
742,6041402.044472554
744,6041509.896928869
746,6041611.23472158
748,6041281.529689905
750,6041392.455248062
752,6040981.1977447625
754,6041295.389267499
756,6041239.4416478425
758,6041271.659960353
760,6041533.037164191
762,6033170.558480699
764,5997309.196911797
766,5919816.184365741
768,5789128.623488824
770,5591227.92157777
772,5331562.926099856
774,5030824.995786329
776,4699258.250554136
778,4346757.545140255
780,3987299.429810042
782,3631624.3336451664
784,3286378.269654552
786,2964560.482130975
788,2677357.907088312
790,2431812.978824052
792,2227005.630354121
794,2056991.6675400746
796,1912122.286436368
798,1783069.2196949078
800,1663500.214270693
802,1548744.6415391257
804,1440089.3704584274
806,1338355.7413583586
808,1246002.4351940232
810,1164641.9993123675
812,1094313.8934356393
814,1033315.1507154639
816,979276.3012057306
818,928884.3489745458
820,880151.1850921786
822,831067.2044299131
824,781134.7456778135
826,731197.4373941015
828,682133.9307999852
830,635157.065687494
832,590767.9318637582
834,549817.9262336656
836,511926.9827578021
838,476508.58827418834
840,442988.8091633684
842,410512.7161371145
844,378885.83903410326
846,347759.8550145639
848,317145.038704723
850,286997.5341464601
852,257814.11993689087
854,229635.74166079867
856,202883.51438950063
858,177548.2583061767
860,153963.78261275878
862,132580.8515415665
864,113288.53811543316
866,96239.40874515912
868,81413.00428997858
870,68826.20859127876
872,58133.754868965356
874,49160.33286656182
876,41666.7751322839
878,35497.06635140222
880,30295.018445045593
882,25695.68578759554
884,21591.37521759164
886,17852.922836174053
888,14389.809163301048
890,11160.697668091325
892,8122.388938503005
894,5540.658797514908
896,3560.8201047046186
898,2067.8082667675035
900,1036.1379326991748
902,389.7262820249188
904,91.05201843704549
906,33.85408597934234
908,10.175341117526877
910,0.4798427012002451
912,-3.482973111878331
914,2.393407046365594
916,-5.54246237681494
918,-0.29287613119402345
920,-2.3379566926154904
922,4.289920058427215
924,0.9442159283387628
926,-2.7336637591896857
928,1.0006701908683229
930,-1.3057717257606596
932,1.5404292547943992
934,4.001179039549514
936,-1.414773894536123
938,3.248233771030033
940,0.4896997775772239
942,3.269850699677664
944,0.8757233738836303
946,1.835094323646329
948,-1.5911823412967454
950,0.22756291881490442
952,1.4645588048001232
954,3.043621082643513
956,0.027056986644400358
958,-0.10659459427895207
960,-0.7023202398106899
962,-2.0064684457895754
964,-3.0020412361544704
966,-2.2327748367148637
968,-2.2451702637504916
970,3.087313082970052
972,-1.474238603491238
974,-1.3750943045639343
976,0.09099228775895851
978,-4.359327552662422
980,0.17173412192045567
982,0.5883557203648353
984,-0.6237451035931326
986,0.24693956783995888
988,-1.1733774690472267
990,1.089032408027303
992,0.5823660453244227
994,0.22070109661222787
996,-2.4283186811864717
998,-1.410528741235163
1000,-1.602076920989911
1002,-0.0723170684905614
1004,-2.2803875418149437
1006,-0.15982876153475076
1008,-1.1915084778267833
1010,-1.9937058314243845
1012,1.598653035792643
1014,-0.6487785841223528
1016,2.324849570691117
1018,0.7091701747258704
