wave,flux
336,0.58360937721277
338,-0.30421816127237317
340,1.9103950188203627
342,-3.989611682634607
344,0.7561271146117817
346,-1.207976619115321
348,-1.9461030788627318
350,0.2672824480897902
352,-0.710053183664828
354,-3.525312954487404
356,8.290202643238853
358,407.7112209041439
360,2053.4632955953516
362,5490.966236264619
364,10514.154928256221
366,16898.877968376863
368,24694.82517182449
370,33844.08390532207
372,44346.57267373022
374,56122.92252009186
376,69277.66230138887
378,83848.03445895054
380,100218.80344124963
382,118916.44237412934
384,140563.0503177228
386,165183.74343719828
388,192162.52468610022
390,221118.9206525624
392,252541.03826002884
394,286304.0276170177
396,321558.0714281873
398,357085.4511277892
400,392680.17360143486
402,428532.5749126271
404,465413.9642108623
406,504605.4990537964
408,548136.6472101026
410,598127.9494335613
412,655648.2539981009
414,721599.2650452332
416,801436.5437648802
418,908809.9006209397
420,1070701.0262722066
422,1327936.49596105
424,1726761.0570997465
426,2304456.653287826
428,3060861.904687031
430,3903445.236344679
432,4709163.515016266
434,5352319.62522149
436,5755614.854165456
438,5961139.539810745
440,6033819.7729732385
442,6041697.596793292
444,6041408.7874092655
446,6041274.098110897
448,6041330.780525797
450,6041610.026636859
452,6041228.580430465
454,6041762.721112796
456,6041436.306719219
458,6041297.733842673
460,6041235.21545088
462,6041587.003026463
464,6041501.475679819
466,6041102.470103923
468,6041406.007504388
470,6041745.73656819
472,6041040.242609096
474,6041263.747526585
476,6041256.299206032
478,6041441.073496893
480,6041545.94089172
482,6041410.223876459
484,6041700.092277915
486,6041559.278500069
488,6041158.142731591
490,6041537.449933686
492,6041106.715179561
494,6041156.182932681
496,6041334.625298767
498,6041546.460406196
500,6041306.591870932
502,6041049.746015422
504,6041392.000345535
506,6041153.052758219
508,6040860.046643154
510,6041155.519863652
512,6041647.244659635
514,6041328.560979365
516,6041178.324533562
518,6041113.813244463
520,6041377.4618379
522,6041667.28487595
524,6041254.433336564
526,6040882.970032628
528,6041443.175726396
530,6041277.99893941
532,6041549.526252355
534,6041293.2810404645
536,6041654.24014794
538,6041372.860435893
540,6041496.094376298
542,6041436.65553785
544,6041294.897324759
546,6041482.184524253
548,6041462.619961375
550,6041183.731532895
552,6041622.7645523455
554,6041930.686584956
556,6041557.3651510775
558,6041657.339656006
560,6041512.519937211
562,6041365.432531061
564,6041613.042907186
566,6041115.356369854
568,6041096.9583771825
570,6040873.873882044
572,6041592.254641157
574,6041475.744097952
576,6041152.379291695
578,6041327.7699028365
580,6041454.068619473
582,6041529.7656758325
584,6041432.639660024
586,6040870.297959537
588,6041511.65385404
590,6041662.320628785
592,6041263.725524271
594,6041502.281122956
596,6041744.496532274
598,6041034.360969942
600,6041756.534944902
602,6041701.993158728
604,6041131.6173456805
606,6041177.670319262
608,6041298.467537891
610,6041145.015848836
612,6041068.995913793
614,6041139.710193929
616,6041220.598982385
618,6041595.4478589045
620,6041886.959920454
622,6041983.336250753
624,6042023.131383277
626,6041597.322210646
628,6040552.019069211
630,6039749.682705119
632,6040571.027172857
634,6041389.106541877
636,6041637.1715658875
638,6042114.317968911
640,6041990.454278576
642,6041355.9668552
644,6041049.726737337
646,6041178.597373744
648,6041641.641528573
650,6041400.012991753
652,6041705.722394242
654,6041397.689666476
656,6041151.216909154
658,6041511.431222008
660,6041551.262288621
662,6041377.486709211
664,6041484.487439378
666,6041443.750089349
668,6041107.991048771
670,6041563.760999665
672,6041267.2062764475
674,6041163.483843256
676,6041536.128915831
678,6041346.24345349
680,6041150.289956291
682,6041410.314774397
684,6041560.064687422
686,6041447.9187860545
688,6040955.81893969
690,6041315.875338955
692,6041350.307975556
694,6041850.281893436
696,6041497.367671758
698,6041199.302168769
700,6041453.64627868
702,6041828.693192877
704,6040860.42770877
706,6041675.622792104
708,6041571.681644926
710,6041346.454989626
712,6041546.234560798
714,6041858.824615336
716,6041142.5820534965
718,6041286.403162461
720,6041703.1207177285
722,6041807.585318082
724,6041329.8607438
726,6041296.890614847
728,6041527.288726995
730,6041723.792105585
732,6041192.330811199
734,6041150.1016538385
736,6041704.398114255
738,6041255.137810724
740,6041344.973276121
742,6041402.044472554
744,6041509.896928869
746,6041611.23472158
748,6041281.529689905
750,6041392.455248062
752,6040981.1977447625
754,6041295.389267499
756,6041239.4416478425
758,6041271.659960353
760,6041533.037164191
762,6033170.558480699
764,5997309.196911797
766,5919816.184365741
768,5789128.623488824
770,5591227.92157777
772,5331562.926099856
774,5030824.995786329
776,4699258.250554136
778,4346757.545140255
780,3987299.429810042
782,3631624.3336451664
784,3286378.269654552
786,2964560.482130975
788,2677357.907088312
790,2431812.978824052
792,2227005.630354121
794,2056991.6675400746
796,1912122.286436368
798,1783069.2196949078
800,1663500.214270693
802,1548744.6415391257
804,1440089.3704584274
806,1338355.7413583586
808,1246002.4351940232
810,1164641.9993123675
812,1094313.8934356393
814,1033315.1507154639
816,979276.3012057306
818,928884.3489745458
820,880151.1850921786
822,831067.2044299131
824,781134.7456778135
826,731197.4373941015
828,682133.9307999852
830,635157.065687494
832,590767.9318637582
834,549817.9262336656
836,511926.9827578021
838,476508.58827418834
840,442988.8091633684
842,410512.7161371145
844,378885.83903410326
846,347759.8550145639
848,317145.038704723
850,286997.5341464601
852,257814.11993689087
854,229635.74166079867
856,202883.51438950063
858,177548.2583061767
860,153963.78261275878
862,132580.8515415665
864,113288.53811543316
866,96239.40874515912
868,81413.00428997858
870,68826.20859127876
872,58133.754868965356
874,49160.33286656182
876,41666.7751322839
878,35497.06635140222
880,30295.018445045593
882,25695.68578759554
884,21591.37521759164
886,17852.922836174053
888,14389.809163301048
890,11160.697668091325
892,8122.388938503005
894,5540.658797514908
896,3560.8201047046186
898,2067.8082667675035
900,1036.1379326991748
902,389.7262820249188
904,91.05201843704549
906,33.85408597934234
908,10.175341117526877
910,0.4798427012002451
912,-3.482973111878331
914,2.393407046365594
916,-5.54246237681494
918,-0.29287613119402345
920,-2.3379566926154904
922,4.289920058427215
924,0.9442159283387628
926,-2.7336637591896857
928,1.0006701908683229
930,-1.3057717257606596
932,1.5404292547943992
934,4.001179039549514
936,-1.414773894536123
938,3.248233771030033
940,0.4896997775772239
942,3.269850699677664
944,0.8757233738836303
946,1.835094323646329
948,-1.5911823412967454
950,0.22756291881490442
952,1.4645588048001232
954,3.043621082643513
956,0.027056986644400358
958,-0.10659459427895207
960,-0.7023202398106899
962,-2.0064684457895754
964,-3.0020412361544704
966,-2.2327748367148637
968,-2.2451702637504916
970,3.087313082970052
972,-1.474238603491238
974,-1.3750943045639343
976,0.09099228775895851
978,-4.359327552662422
980,0.17173412192045567
982,0.5883557203648353
984,-0.6237451035931326
986,0.24693956783995888
988,-1.1733774690472267
990,1.089032408027303
992,0.5823660453244227
994,0.22070109661222787
996,-2.4283186811864717
998,-1.410528741235163
1000,-1.602076920989911
1002,-0.0723170684905614
1004,-2.2803875418149437
1006,-0.15982876153475076
1008,-1.1915084778267833
1010,-1.9937058314243845
1012,1.598653035792643
1014,-0.6487785841223528
1016,2.324849570691117
1018,0.7091701747258704
