wave,flux
336,1431.4973128096046
338,2362.6967947007515
340,3550.8627726790833
342,4887.059612127448
344,6450.9594714665645
346,8577.962511561585
348,11335.716782177224
350,14519.315629010402
352,18027.865004056646
354,21927.171198435783
356,26471.0899791849
358,31690.833233230176
360,37414.845780222175
362,43746.00017353828
364,50807.07582214988
366,58864.38579608731
368,68620.87530395815
370,80606.11897215036
372,96315.99618797118
374,119819.32374052367
376,158601.26211621083
378,220666.6206353053
380,307834.8227761486
382,414517.66727316595
384,533772.6059344714
386,663463.8191793467
388,804106.9202100124
390,953584.296536838
392,1105174.0527434614
394,1250209.3096725654
396,1385621.472821022
398,1518730.344392895
400,1667046.8860347294
402,1846718.693328873
404,2060991.3908830963
406,2296584.1558733187
408,2529861.7349496265
410,2735390.27364086
412,2893417.7083911086
414,2999797.419806032
416,3068237.6488667917
418,3126524.7013512235
420,3204354.0686863572
422,3319335.79408494
424,3476157.4144150317
426,3668748.241872816
428,3891954.3650136846
430,4141034.241602146
432,4413040.093133551
434,4700669.3567220885
436,4996148.4282510625
438,5283143.428828065
440,5539870.705684756
442,5750107.778868319
444,5897994.514915924
446,5984177.8772802465
448,6026423.655951376
450,6040281.718694976
452,6041611.579928753
454,6041463.201616437
456,6041331.948666591
458,6041005.7543697
460,6041250.7765066335
462,6041355.235721103
464,6041403.357890957
466,6041161.525496871
468,6041616.929753487
470,6041231.133548148
472,6041696.477622404
474,6041319.789415915
476,6041124.898138477
478,6040907.819719411
480,6041440.379535089
482,6041227.019986153
484,6041667.029405035
486,6041607.815911935
488,6041504.282778746
490,6041189.351460857
492,6041596.860304494
494,6041253.492464916
496,6041616.803594901
498,6042065.648743506
500,6041488.632733633
502,6041326.877139108
504,6040926.488247843
506,6041574.89161547
508,6041352.133643091
510,6041005.666911748
512,6041184.670045093
514,6041363.276333532
516,6041225.01670501
518,6040984.657848651
520,6041152.1726201195
522,6041771.177767748
524,6041215.842532297
526,6041111.672377581
528,6041421.691607305
530,6041297.07500664
532,6041468.0711483285
534,6041517.44769299
536,6041132.164840847
538,6041610.650377558
540,6041364.484665282
542,6041193.245563906
544,6041579.979344629
546,6041454.75346248
548,6041148.298490107
550,6041269.663396605
552,6041371.219948671
554,6041109.078136759
556,6041443.038456224
558,6041243.754831761
560,6040966.665856347
562,6041246.672225413
564,6041381.024818362
566,6041287.966030059
568,6041386.702728181
570,6041371.67923833
572,6041308.713047626
574,6041183.5344950855
576,6041407.961382577
578,6041251.971484229
580,6041294.4843168175
582,6041376.582157557
584,6041099.082346446
586,6041475.379685836
588,6041522.901826227
590,6041254.225307319
592,6041379.815730573
594,6041472.975179391
596,6041491.400450178
598,6041928.389235988
600,6041551.447475004
602,6041271.056245295
604,6041274.899731434
606,6041306.637377735
608,6041398.133179813
610,6041312.685379955
612,6041659.837793288
614,6041780.736769514
616,6041136.411775591
618,6041612.911531467
620,6041221.573194128
622,6040509.251970479
624,6041445.805839606
626,6040915.046554194
628,6040852.030491399
630,6042353.247094793
632,6042237.644795559
634,6041527.454485543
636,6040965.746460148
638,6040366.855599834
640,6041357.402726383
642,6042199.8934614
644,6040759.635142521
646,6041665.881161575
648,6041230.647698167
650,6038784.995008663
652,6040308.481767172
654,6041218.13346556
656,6042092.439097232
658,6041292.61115241
660,6041544.971031016
662,6041377.617865346
664,6041484.512872415
666,6041443.751858193
668,6041107.991130732
670,6041563.761001725
672,6041267.206276391
674,6041163.483843246
676,6041536.1289158305
678,6041346.24345349
680,6041150.289956291
682,6041410.314774397
684,6041560.064687422
686,6041447.9187860545
688,6040955.81893969
690,6041315.875338955
692,6041350.307975556
694,6041850.281893436
696,6041497.367671758
698,6041199.302168769
700,6041453.64627868
702,6041828.693192877
704,6040860.42770877
706,6041675.622792104
708,6041571.681644926
710,6041346.454989626
712,6041546.234560798
714,6041858.824615336
716,6041142.5820534965
718,6041286.403162461
720,6041703.1207177285
722,6041807.585318082
724,6041329.8607438
726,6041296.890614847
728,6041527.288726995
730,6041723.792105585
732,6041192.330811199
734,6041150.1016538385
736,6041704.398114255
738,6041255.137810724
740,6041344.973276121
742,6041402.044472554
744,6041509.896928869
746,6041611.23472158
748,6041281.529689905
750,6041392.455248062
752,6040981.1977447625
754,6041295.389267499
756,6041239.4416478425
758,6041271.659960353
760,6041533.037164191
762,6033170.558480699
764,5997309.196911797
766,5919816.184365741
768,5789128.623488824
770,5591227.92157777
772,5331562.926099856
774,5030824.995786329
776,4699258.250554136
778,4346757.545140255
780,3987299.429810042
782,3631624.3336451664
784,3286378.269654552
786,2964560.482130975
788,2677357.907088312
790,2431812.978824052
792,2227005.630354121
794,2056991.6675400746
796,1912122.286436368
798,1783069.2196949078
800,1663500.214270693
802,1548744.6415391257
804,1440089.3704584274
806,1338355.7413583586
808,1246002.4351940232
810,1164641.9993123675
812,1094313.8934356393
814,1033315.1507154639
816,979276.3012057306
818,928884.3489745458
820,880151.1850921786
822,831067.2044299131
824,781134.7456778135
826,731197.4373941015
828,682133.9307999852
830,635157.065687494
832,590767.9318637582
834,549817.9262336656
836,511926.9827578021
838,476508.58827418834
840,442988.8091633684
842,410512.7161371145
844,378885.83903410326
846,347759.8550145639
848,317145.038704723
850,286997.5341464601
852,257814.11993689087
854,229635.74166079867
856,202883.51438950063
858,177548.2583061767
860,153963.78261275878
862,132580.8515415665
864,113288.53811543316
866,96239.40874515912
868,81413.00428997858
870,68826.20859127876
872,58133.754868965356
874,49160.33286656182
876,41666.7751322839
878,35497.06635140222
880,30295.018445045593
882,25695.68578759554
884,21591.37521759164
886,17852.922836174053
888,14389.809163301048
890,11160.697668091325
892,8122.388938503005
894,5540.658797514908
896,3560.8201047046186
898,2067.8082667675035
900,1036.1379326991748
902,389.7262820249188
904,91.05201843704549
906,33.85408597934234
908,10.175341117526877
910,0.4798427012002451
912,-3.482973111878331
914,2.393407046365594
916,-5.54246237681494
918,-0.29287613119402345
920,-2.3379566926154904
922,4.289920058427215
924,0.9442159283387628
926,-2.7336637591896857
928,1.0006701908683229
930,-1.3057717257606596
932,1.5404292547943992
934,4.001179039549514
936,-1.414773894536123
938,3.248233771030033
940,0.4896997775772239
942,3.269850699677664
944,0.8757233738836303
946,1.835094323646329
948,-1.5911823412967454
950,0.22756291881490442
952,1.4645588048001232
954,3.043621082643513
956,0.027056986644400358
958,-0.10659459427895207
960,-0.7023202398106899
962,-2.0064684457895754
964,-3.0020412361544704
966,-2.2327748367148637
968,-2.2451702637504916
970,3.087313082970052
972,-1.474238603491238
974,-1.3750943045639343
976,0.09099228775895851
978,-4.359327552662422
980,0.17173412192045567
982,0.5883557203648353
984,-0.6237451035931326
986,0.24693956783995888
988,-1.1733774690472267
990,1.089032408027303
992,0.5823660453244227
994,0.22070109661222787
996,-2.4283186811864717
998,-1.410528741235163
1000,-1.602076920989911
1002,-0.0723170684905614
1004,-2.2803875418149437
1006,-0.15982876153475076
1008,-1.1915084778267833
1010,-1.9937058314243845
1012,1.598653035792643
1014,-0.6487785841223528
1016,2.324849570691117
1018,0.7091701747258704
