wave,flux
336,820.9029524470782
338,1221.2335752645522
340,1733.876794405298
342,2434.6645162630375
344,3408.5529003109464
346,4624.418612266554
348,6068.086186182847
350,7774.606912416736
352,9726.454400743403
354,12027.352317434388
356,14662.748067537117
358,17637.399022707817
360,21103.84534669674
362,25128.25389600155
364,29611.92069891764
366,34692.634346732564
368,40955.39945547086
370,49135.622690284385
372,60429.97351707132
374,77455.45191918749
376,104238.60718722208
378,143841.20413387482
380,194909.11374117673
382,252191.04550464646
384,309927.0297767954
386,365668.89928354404
388,420842.68792705255
390,480431.3328037255
392,551567.3785685695
394,638499.9569926058
396,742668.5781151995
398,860306.7230893052
400,987659.2304422705
402,1118040.7449866321
404,1246166.2671595544
406,1368831.1846660627
408,1486823.5841916373
410,1600235.6898318634
412,1708103.637760015
414,1809920.0154266532
416,1909081.5143874
418,2012228.20535344
420,2128639.002674073
422,2266182.529915029
424,2430500.060672408
426,2624283.2070534406
428,2842054.08009396
430,3070712.5147863883
432,3292467.7291166927
434,3493735.9795573307
436,3671229.985049804
438,3837194.0520431707
440,4011382.898136228
442,4212842.986360947
444,4449697.825980085
446,4718212.746864751
448,5006028.791939622
450,5287832.802483876
452,5539051.956677652
454,5743689.336440306
456,5887759.420041749
458,5974924.759900778
460,6020170.650239996
462,6038254.334520012
464,6041667.916397231
466,6041356.741991216
468,6041595.484253374
470,6041247.296383404
472,6041639.391912659
474,6041081.427433512
476,6041645.036078097
478,6041211.730100816
480,6041446.455082874
482,6041495.807956333
484,6041441.683741752
486,6041424.908152071
488,6041169.628540264
490,6041204.783927257
492,6041475.933084561
494,6041289.894543183
496,6041419.543728982
498,6041783.53372601
500,6041527.877750564
502,6041166.508531882
504,6041508.097494947
506,6041700.589441102
508,6041321.535578296
510,6041532.998277161
512,6041481.2811385505
514,6041657.898185467
516,6041149.630355244
518,6041567.107216126
520,6041584.882211379
522,6041402.271575238
524,6041401.654479019
526,6041771.812285914
528,6041585.884456649
530,6041642.38278414
532,6041102.9358337475
534,6041146.334827402
536,6041387.818410675
538,6041169.466308635
540,6041548.943675988
542,6041413.83867177
544,6041193.788469653
546,6041362.3795221625
548,6041318.788383255
550,6041352.915002557
552,6041382.571549776
554,6041185.891725048
556,6041227.775506502
558,6041391.65363142
560,6041163.126620204
562,6041353.078958286
564,6041421.171925499
566,6041978.860437392
568,6041698.8795857215
570,6041850.232654455
572,6041198.838421301
574,6041577.003173982
576,6041669.791874344
578,6041795.120787699
580,6041621.917546746
582,6041253.875993911
584,6041256.687893175
586,6041080.084114073
588,6041499.487363382
590,6041717.772040409
592,6041263.434665576
594,6041173.182902306
596,6041650.416591185
598,6041565.454844286
600,6041308.549172647
602,6041344.17909914
604,6041485.461161445
606,6041492.878478814
608,6041491.331017429
610,6041584.473139933
612,6041653.177876516
614,6041418.598877806
616,6041179.2368523665
618,6041932.331025331
620,6041394.090971309
622,6040394.675246067
624,6041636.338037996
626,6042717.638121543
628,6042588.336945271
630,6042312.191583005
632,6043383.886836831
634,6042698.4344634535
636,6040613.832011284
638,6040537.253805291
640,6040702.9811590025
642,6039895.858184669
644,6038910.098561224
646,6040313.309965435
648,6042885.587160066
650,6043216.235966966
652,6041020.822712525
654,6039130.790796267
656,6040684.9046792695
658,6040820.4846226
660,6038769.683202431
662,6040510.91019655
664,6043086.869202987
666,6042404.504227886
668,6041204.152214388
670,6041784.378452418
672,6044464.552485592
674,6045415.526930379
676,6042609.603401647
678,6040557.341776563
680,6040804.3088859655
682,6041308.016662717
684,6041555.028179144
686,6041447.654866975
688,6040955.805518703
690,6041315.874658636
692,6041350.307939288
694,6041850.2818912165
696,6041497.367671591
698,6041199.302168753
700,6041453.646278678
702,6041828.693192876
704,6040860.42770877
706,6041675.622792104
708,6041571.681644926
710,6041346.454989626
712,6041546.234560798
714,6041858.824615336
716,6041142.5820534965
718,6041286.403162461
720,6041703.1207177285
722,6041807.585318082
724,6041329.8607438
726,6041296.890614847
728,6041527.288726995
730,6041723.792105585
732,6041192.330811199
734,6041150.1016538385
736,6041704.398114255
738,6041255.137810724
740,6041344.973276121
742,6041402.044472554
744,6041509.896928869
746,6041611.23472158
748,6041281.529689905
750,6041392.455248062
752,6040981.1977447625
754,6041295.389267499
756,6041239.4416478425
758,6041271.659960353
760,6041533.037164191
762,6033170.558480699
764,5997309.196911797
766,5919816.184365741
768,5789128.623488824
770,5591227.92157777
772,5331562.926099856
774,5030824.995786329
776,4699258.250554136
778,4346757.545140255
780,3987299.429810042
782,3631624.3336451664
784,3286378.269654552
786,2964560.482130975
788,2677357.907088312
790,2431812.978824052
792,2227005.630354121
794,2056991.6675400746
796,1912122.286436368
798,1783069.2196949078
800,1663500.214270693
802,1548744.6415391257
804,1440089.3704584274
806,1338355.7413583586
808,1246002.4351940232
810,1164641.9993123675
812,1094313.8934356393
814,1033315.1507154639
816,979276.3012057306
818,928884.3489745458
820,880151.1850921786
822,831067.2044299131
824,781134.7456778135
826,731197.4373941015
828,682133.9307999852
830,635157.065687494
832,590767.9318637582
834,549817.9262336656
836,511926.9827578021
838,476508.58827418834
840,442988.8091633684
842,410512.7161371145
844,378885.83903410326
846,347759.8550145639
848,317145.038704723
850,286997.5341464601
852,257814.11993689087
854,229635.74166079867
856,202883.51438950063
858,177548.2583061767
860,153963.78261275878
862,132580.8515415665
864,113288.53811543316
866,96239.40874515912
868,81413.00428997858
870,68826.20859127876
872,58133.754868965356
874,49160.33286656182
876,41666.7751322839
878,35497.06635140222
880,30295.018445045593
882,25695.68578759554
884,21591.37521759164
886,17852.922836174053
888,14389.809163301048
890,11160.697668091325
892,8122.388938503005
894,5540.658797514908
896,3560.8201047046186
898,2067.8082667675035
900,1036.1379326991748
902,389.7262820249188
904,91.05201843704549
906,33.85408597934234
908,10.175341117526877
910,0.4798427012002451
912,-3.482973111878331
914,2.393407046365594
916,-5.54246237681494
918,-0.29287613119402345
920,-2.3379566926154904
922,4.289920058427215
924,0.9442159283387628
926,-2.7336637591896857
928,1.0006701908683229
930,-1.3057717257606596
932,1.5404292547943992
934,4.001179039549514
936,-1.414773894536123
938,3.248233771030033
940,0.4896997775772239
942,3.269850699677664
944,0.8757233738836303
946,1.835094323646329
948,-1.5911823412967454
950,0.22756291881490442
952,1.4645588048001232
954,3.043621082643513
956,0.027056986644400358
958,-0.10659459427895207
960,-0.7023202398106899
962,-2.0064684457895754
964,-3.0020412361544704
966,-2.2327748367148637
968,-2.2451702637504916
970,3.087313082970052
972,-1.474238603491238
974,-1.3750943045639343
976,0.09099228775895851
978,-4.359327552662422
980,0.17173412192045567
982,0.5883557203648353
984,-0.6237451035931326
986,0.24693956783995888
988,-1.1733774690472267
990,1.089032408027303
992,0.5823660453244227
994,0.22070109661222787
996,-2.4283186811864717
998,-1.410528741235163
1000,-1.602076920989911
1002,-0.0723170684905614
1004,-2.2803875418149437
1006,-0.15982876153475076
1008,-1.1915084778267833
1010,-1.9937058314243845
1012,1.598653035792643
1014,-0.6487785841223528
1016,2.324849570691117
1018,0.7091701747258704
