wave,flux
336,59.383044026674
338,448.723855193697
340,1419.3611547661844
342,2932.060554520168
344,4836.105927664325
346,6956.608454895022
348,9542.376244608273
350,12944.352814516988
352,17011.31845546832
354,21549.479026735527
356,26755.11254390419
358,32719.035915632587
360,39551.70178928479
362,47525.3339056629
364,56746.987224779485
366,66972.27376853635
368,78018.90530369125
370,89990.79571221507
372,103112.95892201005
374,117429.96151019447
376,133367.54083775473
378,152104.05081362306
380,174662.20565857142
382,203506.92232325143
384,246170.04102343688
386,316817.97984797903
388,434074.2850777718
390,613309.4954656735
392,858175.7058643012
394,1152545.8492165091
396,1465184.9683658562
398,1763564.831651086
400,2028184.1324776595
402,2261676.441660775
404,2484853.4142227503
406,2729907.252116359
408,3023469.7604147
410,3368917.442721417
412,3740241.522770917
414,4096334.36430415
416,4406361.12340231
418,4662447.697609405
420,4877330.349997479
422,5066644.323526638
424,5243843.424170745
426,5415592.124162597
428,5582546.616386581
430,5735943.814036128
432,5865982.734242235
434,5958159.467762082
436,6010853.216759491
438,6034946.46976751
440,6041461.784101619
442,6041374.900835284
444,6041394.398618161
446,6041153.536178554
448,6041280.147350242
450,6041125.391735593
452,6041386.823142222
454,6040931.074057123
456,6041650.693221985
458,6040841.001160117
460,6041009.821856747
462,6041719.427008358
464,6041012.093203303
466,6041386.095424313
468,6041656.472335356
470,6041425.865484653
472,6041236.097008621
474,6041609.71653523
476,6041171.587710754
478,6041869.10233197
480,6041276.437784827
482,6041800.543322892
484,6040966.084011092
486,6041660.24713936
488,6041415.043431145
490,6041632.281487066
492,6041370.868400135
494,6041434.870709697
496,6041412.435659644
498,6041184.964767763
500,6041413.321514217
502,6041683.849297261
504,6041852.788386308
506,6041408.799409942
508,6041700.828285542
510,6041211.801587309
512,6041519.85428287
514,6041233.706390587
516,6041379.59811716
518,6041610.905949703
520,6041542.546732855
522,6041659.217157616
524,6041483.940993822
526,6041123.8755392395
528,6041407.275993619
530,6041346.912891328
532,6040975.325747102
534,6041473.852068123
536,6041585.2454042705
538,6041257.45695582
540,6041438.623809086
542,6041523.359988412
544,6041494.298970767
546,6041536.33303826
548,6041219.917395266
550,6041353.275584732
552,6041412.03452082
554,6041361.475549606
556,6041476.313517338
558,6041562.135999458
560,6041816.774090275
562,6041697.703627017
564,6041460.918734124
566,6041263.061571768
568,6041266.476363937
570,6041630.788425772
572,6040650.119826512
574,6041865.571739351
576,6041316.747492622
578,6041163.345854856
580,6041252.233857018
582,6041108.4305607015
584,6041712.186008173
586,6041491.847458687
588,6041534.3814844275
590,6041933.723508373
592,6041444.565330683
594,6041201.359498611
596,6041720.577804864
598,6041613.209182447
600,6041730.9669037685
602,6041406.549082591
604,6041373.075383619
606,6041654.304643448
608,6041227.213326519
610,6041459.362124463
612,6041563.284794824
614,6041276.283775818
616,6041147.552773457
618,6040874.29856022
620,6041217.677428938
622,6042125.296878677
624,6042487.256870413
626,6041680.029367686
628,6041207.922632786
630,6041689.377362962
632,6041586.973914928
634,6041580.513131836
636,6041840.651958836
638,6041628.028076705
640,6041058.447847354
642,6040641.650174409
644,6040846.399441728
646,6041536.796421399
648,6042296.89100822
650,6042695.088100012
652,6042671.384028526
654,6042454.957902588
656,6042307.9297679085
658,6041830.813936302
660,6041203.983430702
662,6041411.015522066
664,6041554.365588929
666,6041635.363646534
668,6041223.749595412
670,6041566.670919763
672,6041267.1248760205
674,6041163.467371754
676,6041536.12746629
678,6041346.24335134
680,6041150.28994988
682,6041410.314774024
684,6041560.064687402
686,6041447.918786053
688,6040955.81893969
690,6041315.875338955
692,6041350.307975556
694,6041850.281893436
696,6041497.367671758
698,6041199.302168769
700,6041453.64627868
702,6041828.693192877
704,6040860.42770877
706,6041675.622792104
708,6041571.681644926
710,6041346.454989626
712,6041546.234560798
714,6041858.824615336
716,6041142.5820534965
718,6041286.403162461
720,6041703.1207177285
722,6041807.585318082
724,6041329.8607438
726,6041296.890614847
728,6041527.288726995
730,6041723.792105585
732,6041192.330811199
734,6041150.1016538385
736,6041704.398114255
738,6041255.137810724
740,6041344.973276121
742,6041402.044472554
744,6041509.896928869
746,6041611.23472158
748,6041281.529689905
750,6041392.455248062
752,6040981.1977447625
754,6041295.389267499
756,6041239.4416478425
758,6041271.659960353
760,6041533.037164191
762,6033170.558480699
764,5997309.196911797
766,5919816.184365741
768,5789128.623488824
770,5591227.92157777
772,5331562.926099856
774,5030824.995786329
776,4699258.250554136
778,4346757.545140255
780,3987299.429810042
782,3631624.3336451664
784,3286378.269654552
786,2964560.482130975
788,2677357.907088312
790,2431812.978824052
792,2227005.630354121
794,2056991.6675400746
796,1912122.286436368
798,1783069.2196949078
800,1663500.214270693
802,1548744.6415391257
804,1440089.3704584274
806,1338355.7413583586
808,1246002.4351940232
810,1164641.9993123675
812,1094313.8934356393
814,1033315.1507154639
816,979276.3012057306
818,928884.3489745458
820,880151.1850921786
822,831067.2044299131
824,781134.7456778135
826,731197.4373941015
828,682133.9307999852
830,635157.065687494
832,590767.9318637582
834,549817.9262336656
836,511926.9827578021
838,476508.58827418834
840,442988.8091633684
842,410512.7161371145
844,378885.83903410326
846,347759.8550145639
848,317145.038704723
850,286997.5341464601
852,257814.11993689087
854,229635.74166079867
856,202883.51438950063
858,177548.2583061767
860,153963.78261275878
862,132580.8515415665
864,113288.53811543316
866,96239.40874515912
868,81413.00428997858
870,68826.20859127876
872,58133.754868965356
874,49160.33286656182
876,41666.7751322839
878,35497.06635140222
880,30295.018445045593
882,25695.68578759554
884,21591.37521759164
886,17852.922836174053
888,14389.809163301048
890,11160.697668091325
892,8122.388938503005
894,5540.658797514908
896,3560.8201047046186
898,2067.8082667675035
900,1036.1379326991748
902,389.7262820249188
904,91.05201843704549
906,33.85408597934234
908,10.175341117526877
910,0.4798427012002451
912,-3.482973111878331
914,2.393407046365594
916,-5.54246237681494
918,-0.29287613119402345
920,-2.3379566926154904
922,4.289920058427215
924,0.9442159283387628
926,-2.7336637591896857
928,1.0006701908683229
930,-1.3057717257606596
932,1.5404292547943992
934,4.001179039549514
936,-1.414773894536123
938,3.248233771030033
940,0.4896997775772239
942,3.269850699677664
944,0.8757233738836303
946,1.835094323646329
948,-1.5911823412967454
950,0.22756291881490442
952,1.4645588048001232
954,3.043621082643513
956,0.027056986644400358
958,-0.10659459427895207
960,-0.7023202398106899
962,-2.0064684457895754
964,-3.0020412361544704
966,-2.2327748367148637
968,-2.2451702637504916
970,3.087313082970052
972,-1.474238603491238
974,-1.3750943045639343
976,0.09099228775895851
978,-4.359327552662422
980,0.17173412192045567
982,0.5883557203648353
984,-0.6237451035931326
986,0.24693956783995888
988,-1.1733774690472267
990,1.089032408027303
992,0.5823660453244227
994,0.22070109661222787
996,-2.4283186811864717
998,-1.410528741235163
1000,-1.602076920989911
1002,-0.0723170684905614
1004,-2.2803875418149437
1006,-0.15982876153475076
1008,-1.1915084778267833
1010,-1.9937058314243845
1012,1.598653035792643
1014,-0.6487785841223528
1016,2.324849570691117
1018,0.7091701747258704
