wave,flux
336,1457.9950710777891
338,2236.1174147429774
340,3629.5124437135332
342,5595.53148681155
344,7502.948419717754
346,9732.299053503064
348,12693.359972963615
350,16076.646811717255
352,19595.054822701044
354,23516.357433737663
356,28181.27974234443
358,33543.76173809045
360,39524.34134329788
362,46461.66140334518
364,54588.847516218026
366,63886.51999936986
368,74884.76643808403
370,88510.80621426455
372,106960.73559662291
374,136712.33771170193
376,186771.9591819968
378,259811.7960493776
380,347180.3266343989
382,436740.1737655645
384,526107.2181407921
386,625214.1651734562
388,748917.9698203179
390,912235.0362336767
392,1124392.1542186602
394,1374369.2578208037
396,1626198.3627106282
398,1837073.2325702072
400,1995272.3269827305
402,2124969.8689964865
404,2264330.5750467083
406,2428858.978820459
408,2601600.1319274497
410,2747887.5440700627
412,2843069.8201451492
414,2892410.001715064
416,2928821.849189503
418,2993599.038456301
420,3112778.443328597
422,3285809.162159887
424,3492665.8602242623
426,3712764.737180559
428,3942542.613499595
430,4190516.130355216
432,4469599.753703136
434,4778465.596076148
436,5100367.682105925
438,5401598.336471691
440,5653275.784635223
442,5837326.304218295
444,5951456.4299220815
446,6010389.31510001
448,6035115.13991937
450,6041218.899832174
452,6041320.383770531
454,6041548.291455548
456,6041275.5383445155
458,6041725.192989606
460,6041397.665561406
462,6041397.927973622
464,6041663.769991357
466,6041185.888736768
468,6041619.321483448
470,6041201.701454264
472,6041810.961946797
474,6041110.858856899
476,6041829.274590474
478,6041543.35333
480,6041620.753715802
482,6041768.869870458
484,6041333.811137455
486,6041360.128774644
488,6041361.423804408
490,6041166.160545231
492,6041580.623767425
494,6041002.031617997
496,6041564.552052738
498,6041636.720860431
500,6041500.364062621
502,6041358.929003998
504,6041360.423391375
506,6041160.783200613
508,6041191.091788218
510,6041482.6408935925
512,6041510.160119444
514,6041346.077726501
516,6041838.201841151
518,6041510.559076295
520,6041235.355425253
522,6041652.47322892
524,6041359.053473043
526,6041731.890116378
528,6041583.87108449
530,6041333.310884177
532,6041069.121632898
534,6041339.451343381
536,6041631.253470392
538,6041599.678458371
540,6041495.618167234
542,6041319.118874541
544,6041304.369013231
546,6041231.761436879
548,6041509.24509792
550,6041328.842584335
552,6041262.626775815
554,6041414.066149004
556,6041535.174579414
558,6041507.170692556
560,6041628.803814264
562,6041670.999696411
564,6041136.809062093
566,6040993.158915916
568,6041263.445480272
570,6041807.938895637
572,6041037.66405862
574,6041005.53448294
576,6041572.286748416
578,6041469.939592045
580,6041470.711247573
582,6041548.587278554
584,6041362.9083300335
586,6041778.28008009
588,6041553.756758707
590,6041594.6723732175
592,6041425.552250887
594,6041443.074319838
596,6041863.547865009
598,6041703.059840717
600,6041157.4288268285
602,6041223.177910261
604,6041465.712836883
606,6041538.995430339
608,6041779.962944217
610,6041461.17297909
612,6041316.801406473
614,6041390.765829402
616,6041278.976259089
618,6041740.281082178
620,6041923.743131741
622,6042044.2101886105
624,6042791.122262871
626,6042490.468522452
628,6042233.226685969
630,6042824.425974085
632,6042743.185043222
634,6041603.007221752
636,6040636.549446133
638,6041190.065566706
640,6041228.580453604
642,6040629.085928393
644,6040914.717297824
646,6042314.063874095
648,6043439.348702594
650,6042999.496295271
652,6043138.316823457
654,6043382.35404862
656,6041333.740129086
658,6038973.265406401
660,6038388.573027855
662,6039963.449399865
664,6041754.652688982
666,6041939.982128515
668,6041238.110981249
670,6041005.878867531
672,6042184.627166111
674,6042132.918177452
676,6039688.051663075
678,6039127.42930235
680,6040603.603126518
682,6040413.7199557945
684,6039772.600377764
686,6040911.937160641
688,6041994.844415355
690,6041710.808473839
692,6041110.833550158
694,6041852.636639556
696,6041497.545096136
698,6041199.318308848
700,6041453.647901963
702,6041828.693360323
704,6040860.427725783
706,6041675.622793773
708,6041571.681645082
710,6041346.45498964
712,6041546.2345608
714,6041858.824615336
716,6041142.5820534965
718,6041286.403162461
720,6041703.1207177285
722,6041807.585318082
724,6041329.8607438
726,6041296.890614847
728,6041527.288726995
730,6041723.792105585
732,6041192.330811199
734,6041150.1016538385
736,6041704.398114255
738,6041255.137810724
740,6041344.973276121
742,6041402.044472554
744,6041509.896928869
746,6041611.23472158
748,6041281.529689905
750,6041392.455248062
752,6040981.1977447625
754,6041295.389267499
756,6041239.4416478425
758,6041271.659960353
760,6041533.037164191
762,6033170.558480699
764,5997309.196911797
766,5919816.184365741
768,5789128.623488824
770,5591227.92157777
772,5331562.926099856
774,5030824.995786329
776,4699258.250554136
778,4346757.545140255
780,3987299.429810042
782,3631624.3336451664
784,3286378.269654552
786,2964560.482130975
788,2677357.907088312
790,2431812.978824052
792,2227005.630354121
794,2056991.6675400746
796,1912122.286436368
798,1783069.2196949078
800,1663500.214270693
802,1548744.6415391257
804,1440089.3704584274
806,1338355.7413583586
808,1246002.4351940232
810,1164641.9993123675
812,1094313.8934356393
814,1033315.1507154639
816,979276.3012057306
818,928884.3489745458
820,880151.1850921786
822,831067.2044299131
824,781134.7456778135
826,731197.4373941015
828,682133.9307999852
830,635157.065687494
832,590767.9318637582
834,549817.9262336656
836,511926.9827578021
838,476508.58827418834
840,442988.8091633684
842,410512.7161371145
844,378885.83903410326
846,347759.8550145639
848,317145.038704723
850,286997.5341464601
852,257814.11993689087
854,229635.74166079867
856,202883.51438950063
858,177548.2583061767
860,153963.78261275878
862,132580.8515415665
864,113288.53811543316
866,96239.40874515912
868,81413.00428997858
870,68826.20859127876
872,58133.754868965356
874,49160.33286656182
876,41666.7751322839
878,35497.06635140222
880,30295.018445045593
882,25695.68578759554
884,21591.37521759164
886,17852.922836174053
888,14389.809163301048
890,11160.697668091325
892,8122.388938503005
894,5540.658797514908
896,3560.8201047046186
898,2067.8082667675035
900,1036.1379326991748
902,389.7262820249188
904,91.05201843704549
906,33.85408597934234
908,10.175341117526877
910,0.4798427012002451
912,-3.482973111878331
914,2.393407046365594
916,-5.54246237681494
918,-0.29287613119402345
920,-2.3379566926154904
922,4.289920058427215
924,0.9442159283387628
926,-2.7336637591896857
928,1.0006701908683229
930,-1.3057717257606596
932,1.5404292547943992
934,4.001179039549514
936,-1.414773894536123
938,3.248233771030033
940,0.4896997775772239
942,3.269850699677664
944,0.8757233738836303
946,1.835094323646329
948,-1.5911823412967454
950,0.22756291881490442
952,1.4645588048001232
954,3.043621082643513
956,0.027056986644400358
958,-0.10659459427895207
960,-0.7023202398106899
962,-2.0064684457895754
964,-3.0020412361544704
966,-2.2327748367148637
968,-2.2451702637504916
970,3.087313082970052
972,-1.474238603491238
974,-1.3750943045639343
976,0.09099228775895851
978,-4.359327552662422
980,0.17173412192045567
982,0.5883557203648353
984,-0.6237451035931326
986,0.24693956783995888
988,-1.1733774690472267
990,1.089032408027303
992,0.5823660453244227
994,0.22070109661222787
996,-2.4283186811864717
998,-1.410528741235163
1000,-1.602076920989911
1002,-0.0723170684905614
1004,-2.2803875418149437
1006,-0.15982876153475076
1008,-1.1915084778267833
1010,-1.9937058314243845
1012,1.598653035792643
1014,-0.6487785841223528
1016,2.324849570691117
1018,0.7091701747258704
