wave,flux
336,144401.4227294271
338,171209.02359122175
340,185316.09334264515
342,206382.6211482704
344,246877.24644357816
346,317010.858142777
348,418880.3983897485
350,510312.9968485998
352,545746.1734281369
354,547272.730753705
356,568499.540619706
358,623864.2506587101
360,684692.1296150539
362,712754.9384817069
364,694622.2244579468
366,652865.4221691707
368,618316.8688778649
370,595596.562475477
372,565895.2029873882
374,521252.79415834136
376,480825.4656916849
378,471977.6505259095
380,504941.4651499204
382,573851.2140966641
384,669166.9220398157
386,781499.3813181358
388,895610.8166577641
390,991110.1860805992
392,1049814.3364064398
394,1062119.5428142357
396,1035018.72700509
398,994200.8343039312
400,970592.5967803427
402,979476.4449978628
404,1012335.9715659134
406,1048437.5721907999
408,1072531.6760107423
410,1080275.4974851306
412,1071690.8408862108
414,1049526.1653327758
416,1023419.0328608028
418,1010376.0328956371
420,1026939.1649494093
422,1078005.8440874638
424,1152177.8764301126
426,1228622.7458214886
428,1288417.0301229898
430,1322645.7077891855
432,1333315.7765276004
434,1330597.9748048633
436,1327551.0417385097
438,1336773.9239365235
440,1369544.3772084513
442,1434274.0125429665
444,1536212.0938586863
446,1680404.2265747685
448,1871068.8724756632
450,2117963.4383066255
452,2430200.8313596654
454,2815180.3454368557
456,3266022.5449613337
458,3751316.2555232435
460,4219923.485187508
462,4614571.350136039
464,4880578.648745571
466,4996408.897063669
468,4975799.727542096
470,4861007.090666112
472,4710586.49292498
474,4583601.749072465
476,4524454.2779332865
478,4558170.243984845
480,4686119.141347482
482,4885104.828943694
484,5125067.088179515
486,5374495.241574899
488,5602118.899218764
490,5779422.23637739
492,5903190.481183793
494,5981543.351527603
496,6023619.029201371
498,6039876.857991654
500,6041148.973869091
502,6041536.419020842
504,6041440.957652647
506,6041298.314152284
508,6041510.568025905
510,6041434.406974762
512,6041641.269471931
514,6041495.4803552
516,6041455.732739761
518,6041733.017260718
520,6041621.103203516
522,6041611.589871213
524,6041414.338162746
526,6041072.846485569
528,6041590.670260749
530,6041226.4363312945
532,6041704.482248741
534,6041137.483398456
536,6041305.0795127265
538,6041788.877664745
540,6041435.864107784
542,6041299.461598424
544,6041199.7633217
546,6041333.4441149775
548,6041407.39587465
550,6041479.708632062
552,6041231.669413846
554,6041198.110254774
556,6041591.001040207
558,6041187.254342653
560,6041461.319508135
562,6041279.495317372
564,6041022.325837876
566,6041507.011844155
568,6041495.76984804
570,6041085.192796099
572,6041458.217123076
574,6041433.53731252
576,6041638.145759293
578,6041497.017442954
580,6041426.91702886
582,6041661.770217497
584,6041383.377659566
586,6041019.983834274
588,6041590.221256183
590,6041749.879091112
592,6041492.388935026
594,6041713.530970746
596,6041871.720704574
598,6041090.85009842
600,6041132.788505304
602,6041212.643628167
604,6041198.634475891
606,6041330.219892109
608,6041383.559796844
610,6041459.887295224
612,6041545.261862003
614,6041506.113069532
616,6041538.188076811
618,6042132.432163117
620,6041320.798596379
622,6040670.788829329
624,6042527.221480888
626,6041910.25951562
628,6040949.839916212
630,6042025.425983205
632,6042507.424917195
634,6041369.441088028
636,6040420.71230341
638,6041949.755666858
640,6042900.743213536
642,6042805.671116008
644,6043191.702551982
646,6043008.6302057095
648,6042165.182793851
650,6041474.636650053
652,6041123.901157739
654,6041114.723400416
656,6041479.339272836
658,6042551.472402609
660,6043080.912574155
662,6040666.015388657
664,6039975.873955627
666,6043833.566957736
668,6044121.632991097
670,6040931.096981034
672,6041076.039954289
674,6041965.782412206
676,6040352.500940804
678,6038476.542012822
680,6038659.942834666
682,6041920.943974354
684,6043974.731748044
686,6041236.076548443
688,6040081.624400704
690,6043347.725326836
692,6044650.772443457
694,6042462.995868901
696,6040513.410622109
698,6039943.435235875
700,6040272.098136507
702,6040998.803962028
704,6041622.957350456
706,6041635.69626484
708,6041567.940511659
710,6041346.123786435
712,6041546.207299372
714,6041858.822595283
716,6041142.581929594
718,6041286.403158154
720,6041703.120718085
722,6041807.585318178
724,6041329.860743812
726,6041296.890614848
728,6041527.288726996
730,6041723.792105587
732,6041192.330811199
734,6041150.1016538385
736,6041704.398114255
738,6041255.137810724
740,6041344.973276121
742,6041402.044472554
744,6041509.896928869
746,6041611.23472158
748,6041281.529689905
750,6041392.455248062
752,6040981.1977447625
754,6041295.389267499
756,6041239.4416478425
758,6041271.659960353
760,6041533.037164191
762,6033170.558480699
764,5997309.196911797
766,5919816.184365741
768,5789128.623488824
770,5591227.92157777
772,5331562.926099856
774,5030824.995786329
776,4699258.250554136
778,4346757.545140255
780,3987299.429810042
782,3631624.3336451664
784,3286378.269654552
786,2964560.482130975
788,2677357.907088312
790,2431812.978824052
792,2227005.630354121
794,2056991.6675400746
796,1912122.286436368
798,1783069.2196949078
800,1663500.214270693
802,1548744.6415391257
804,1440089.3704584274
806,1338355.7413583586
808,1246002.4351940232
810,1164641.9993123675
812,1094313.8934356393
814,1033315.1507154639
816,979276.3012057306
818,928884.3489745458
820,880151.1850921786
822,831067.2044299131
824,781134.7456778135
826,731197.4373941015
828,682133.9307999852
830,635157.065687494
832,590767.9318637582
834,549817.9262336656
836,511926.9827578021
838,476508.58827418834
840,442988.8091633684
842,410512.7161371145
844,378885.83903410326
846,347759.8550145639
848,317145.038704723
850,286997.5341464601
852,257814.11993689087
854,229635.74166079867
856,202883.51438950063
858,177548.2583061767
860,153963.78261275878
862,132580.8515415665
864,113288.53811543316
866,96239.40874515912
868,81413.00428997858
870,68826.20859127876
872,58133.754868965356
874,49160.33286656182
876,41666.7751322839
878,35497.06635140222
880,30295.018445045593
882,25695.68578759554
884,21591.37521759164
886,17852.922836174053
888,14389.809163301048
890,11160.697668091325
892,8122.388938503005
894,5540.658797514908
896,3560.8201047046186
898,2067.8082667675035
900,1036.1379326991748
902,389.7262820249188
904,91.05201843704549
906,33.85408597934234
908,10.175341117526877
910,0.4798427012002451
912,-3.482973111878331
914,2.393407046365594
916,-5.54246237681494
918,-0.29287613119402345
920,-2.3379566926154904
922,4.289920058427215
924,0.9442159283387628
926,-2.7336637591896857
928,1.0006701908683229
930,-1.3057717257606596
932,1.5404292547943992
934,4.001179039549514
936,-1.414773894536123
938,3.248233771030033
940,0.4896997775772239
942,3.269850699677664
944,0.8757233738836303
946,1.835094323646329
948,-1.5911823412967454
950,0.22756291881490442
952,1.4645588048001232
954,3.043621082643513
956,0.027056986644400358
958,-0.10659459427895207
960,-0.7023202398106899
962,-2.0064684457895754
964,-3.0020412361544704
966,-2.2327748367148637
968,-2.2451702637504916
970,3.087313082970052
972,-1.474238603491238
974,-1.3750943045639343
976,0.09099228775895851
978,-4.359327552662422
980,0.17173412192045567
982,0.5883557203648353
984,-0.6237451035931326
986,0.24693956783995888
988,-1.1733774690472267
990,1.089032408027303
992,0.5823660453244227
994,0.22070109661222787
996,-2.4283186811864717
998,-1.410528741235163
1000,-1.602076920989911
1002,-0.0723170684905614
1004,-2.2803875418149437
1006,-0.15982876153475076
1008,-1.1915084778267833
1010,-1.9937058314243845
1012,1.598653035792643
1014,-0.6487785841223528
1016,2.324849570691117
1018,0.7091701747258704
