wave,flux
336,-1.5794281325214543
338,0.7398315927491192
340,1.1307028702550102
342,-1.0444717652028683
344,0.2606512744706919
346,1.549551605313419
348,-3.9246464059425614
350,-2.426986540875138
352,-1.2073574812432686
354,-3.1450879425571436
356,9.06705749851069
358,430.9101455850824
360,2307.582263343583
362,6276.198189408364
364,11819.346527699776
366,18338.436875458603
368,25716.757661266238
370,33837.7152546496
372,42585.54361574563
374,51960.74037614219
376,62306.775983272135
378,73987.301343695
380,87487.95993001614
382,103179.41786013971
384,121482.1836832232
386,142303.63590737357
388,164971.85332620857
390,189395.56607922414
392,216604.75249143448
394,246344.82721056076
396,276884.9353689229
398,305616.24678494333
400,332612.25416713953
402,359020.97913098685
404,386802.79970494745
406,417260.5082935091
408,452534.6011630117
410,494776.2218623092
412,545423.5454335582
414,606143.5955183088
416,681998.0396079153
418,787651.4472982334
420,952609.0927696328
422,1223686.8105036975
424,1654889.6248101292
426,2287986.3091646936
428,3103691.359962696
430,3992376.7600843916
432,4814820.9536302285
434,5436902.970784421
436,5808468.479283848
438,5984970.512224579
440,6037701.564959385
442,6041604.878202101
444,6041264.239324686
446,6041545.0370144
448,6041380.660570668
450,6041353.7939525265
452,6041239.984134343
454,6041189.920232323
456,6041231.882076335
458,6041263.89800574
460,6041293.095225087
462,6041643.116434702
464,6041581.019501932
466,6041440.736723465
468,6041342.962362089
470,6041831.975812827
472,6041172.479658735
474,6041456.335129638
476,6041433.622885809
478,6041560.701595551
480,6041527.727085904
482,6040936.345054071
484,6041407.184042224
486,6041551.601931112
488,6041556.48240175
490,6040991.361704007
492,6041101.60879934
494,6041319.26340032
496,6041045.041001322
498,6041170.222467885
500,6041712.694836359
502,6041310.417348808
504,6041511.2496580845
506,6041255.405411628
508,6041421.555384496
510,6041665.296558032
512,6041173.388199795
514,6041610.672830169
516,6041185.442667252
518,6041268.7496637525
520,6041461.5698175235
522,6041300.535000775
524,6040996.515873124
526,6040818.706148359
528,6041635.188452414
530,6041137.198780253
532,6041894.773058237
534,6041167.01184936
536,6041453.868675044
538,6041480.087923848
540,6041392.914905587
542,6041520.183677073
544,6041703.700274505
546,6041475.818323185
548,6041057.2401202805
550,6041142.111505809
552,6041147.60967855
554,6041286.876009144
556,6041405.893186382
558,6040908.150461339
560,6041215.915003064
562,6041506.330171364
564,6041842.476776721
566,6041567.604980359
568,6041896.431560168
570,6041583.86694512
572,6041285.840510897
574,6041240.148710077
576,6041233.257633655
578,6041214.68468108
580,6041252.705218444
582,6041252.21225439
584,6041172.856154916
586,6041166.712383359
588,6041224.185685934
590,6041463.605015057
592,6041446.464326223
594,6041368.840345895
596,6041477.68386707
598,6041477.081815769
600,6041350.924583247
602,6041029.082899778
604,6041031.42340818
606,6041398.90582698
608,6041492.928648358
610,6041445.487441096
612,6041465.981997416
614,6041548.714654958
616,6041643.345004094
618,6041767.003887844
620,6040959.126919467
622,6040135.162436489
624,6040879.09882067
626,6041424.582128893
628,6040840.1808754895
630,6040018.265598327
632,6040828.979352808
634,6042234.650157418
636,6043279.001274114
638,6043939.959114743
640,6044233.198792678
642,6044174.395421282
644,6043779.224113923
646,6043063.359983965
648,6042042.478144774
650,6041407.856698593
652,6041706.078078559
654,6041397.689813097
656,6041151.21614213
658,6041511.431172598
660,6041551.2622872
662,6041377.486709241
664,6041484.487439384
666,6041443.750089349
668,6041107.991048771
670,6041563.760999665
672,6041267.2062764475
674,6041163.483843256
676,6041536.128915831
678,6041346.24345349
680,6041150.289956291
682,6041410.314774397
684,6041560.064687422
686,6041447.9187860545
688,6040955.81893969
690,6041315.875338955
692,6041350.307975556
694,6041850.281893436
696,6041497.367671758
698,6041199.302168769
700,6041453.64627868
702,6041828.693192877
704,6040860.42770877
706,6041675.622792104
708,6041571.681644926
710,6041346.454989626
712,6041546.234560798
714,6041858.824615336
716,6041142.5820534965
718,6041286.403162461
720,6041703.1207177285
722,6041807.585318082
724,6041329.8607438
726,6041296.890614847
728,6041527.288726995
730,6041723.792105585
732,6041192.330811199
734,6041150.1016538385
736,6041704.398114255
738,6041255.137810724
740,6041344.973276121
742,6041402.044472554
744,6041509.896928869
746,6041611.23472158
748,6041281.529689905
750,6041392.455248062
752,6040981.1977447625
754,6041295.389267499
756,6041239.4416478425
758,6041271.659960353
760,6041533.037164191
762,6033170.558480699
764,5997309.196911797
766,5919816.184365741
768,5789128.623488824
770,5591227.92157777
772,5331562.926099856
774,5030824.995786329
776,4699258.250554136
778,4346757.545140255
780,3987299.429810042
782,3631624.3336451664
784,3286378.269654552
786,2964560.482130975
788,2677357.907088312
790,2431812.978824052
792,2227005.630354121
794,2056991.6675400746
796,1912122.286436368
798,1783069.2196949078
800,1663500.214270693
802,1548744.6415391257
804,1440089.3704584274
806,1338355.7413583586
808,1246002.4351940232
810,1164641.9993123675
812,1094313.8934356393
814,1033315.1507154639
816,979276.3012057306
818,928884.3489745458
820,880151.1850921786
822,831067.2044299131
824,781134.7456778135
826,731197.4373941015
828,682133.9307999852
830,635157.065687494
832,590767.9318637582
834,549817.9262336656
836,511926.9827578021
838,476508.58827418834
840,442988.8091633684
842,410512.7161371145
844,378885.83903410326
846,347759.8550145639
848,317145.038704723
850,286997.5341464601
852,257814.11993689087
854,229635.74166079867
856,202883.51438950063
858,177548.2583061767
860,153963.78261275878
862,132580.8515415665
864,113288.53811543316
866,96239.40874515912
868,81413.00428997858
870,68826.20859127876
872,58133.754868965356
874,49160.33286656182
876,41666.7751322839
878,35497.06635140222
880,30295.018445045593
882,25695.68578759554
884,21591.37521759164
886,17852.922836174053
888,14389.809163301048
890,11160.697668091325
892,8122.388938503005
894,5540.658797514908
896,3560.8201047046186
898,2067.8082667675035
900,1036.1379326991748
902,389.7262820249188
904,91.05201843704549
906,33.85408597934234
908,10.175341117526877
910,0.4798427012002451
912,-3.482973111878331
914,2.393407046365594
916,-5.54246237681494
918,-0.29287613119402345
920,-2.3379566926154904
922,4.289920058427215
924,0.9442159283387628
926,-2.7336637591896857
928,1.0006701908683229
930,-1.3057717257606596
932,1.5404292547943992
934,4.001179039549514
936,-1.414773894536123
938,3.248233771030033
940,0.4896997775772239
942,3.269850699677664
944,0.8757233738836303
946,1.835094323646329
948,-1.5911823412967454
950,0.22756291881490442
952,1.4645588048001232
954,3.043621082643513
956,0.027056986644400358
958,-0.10659459427895207
960,-0.7023202398106899
962,-2.0064684457895754
964,-3.0020412361544704
966,-2.2327748367148637
968,-2.2451702637504916
970,3.087313082970052
972,-1.474238603491238
974,-1.3750943045639343
976,0.09099228775895851
978,-4.359327552662422
980,0.17173412192045567
982,0.5883557203648353
984,-0.6237451035931326
986,0.24693956783995888
988,-1.1733774690472267
990,1.089032408027303
992,0.5823660453244227
994,0.22070109661222787
996,-2.4283186811864717
998,-1.410528741235163
1000,-1.602076920989911
1002,-0.0723170684905614
1004,-2.2803875418149437
1006,-0.15982876153475076
1008,-1.1915084778267833
1010,-1.9937058314243845
1012,1.598653035792643
1014,-0.6487785841223528
1016,2.324849570691117
1018,0.7091701747258704
