wave,flux
336,131330.60599772056
338,169684.4931718132
340,198220.12306693578
342,214819.48223562213
344,219623.87172063996
346,220099.05846162693
348,231887.972604676
350,272556.5873333116
352,345433.31766939076
354,420681.5304832025
356,460793.44432710187
358,461754.19319857867
360,446917.7763870499
362,433680.75998208346
364,426907.1400514789
366,435696.9739418723
368,472589.5052127824
370,536094.2398318846
372,605668.8972582516
374,658926.8616734905
376,690476.6476953008
378,716820.5129920101
380,762063.4733206949
382,839425.1462234469
384,945725.1989159904
386,1069337.342549403
388,1200354.9107025047
390,1329151.8147161342
392,1449500.4976019845
394,1565200.126913867
396,1695578.3026761278
398,1867086.4180975251
400,2097357.7563374257
402,2384438.881877885
404,2708734.464273804
406,3039444.069163516
408,3341995.3928734153
410,3583968.0753209484
412,3743233.4680760796
414,3821182.814399982
416,3844779.2572602173
418,3856296.0318767275
420,3888474.945585252
422,3942065.8564757877
424,3983015.049890025
426,3966593.001613967
428,3867895.3521839543
430,3704275.2274138196
432,3524698.571105483
434,3388071.03560195
436,3333528.409784432
438,3369720.3342162673
440,3478722.48429252
442,3631523.1066646203
444,3801868.180743028
446,3981569.518239238
448,4180548.7906679856
450,4424154.143707276
452,4714084.541783805
454,5036301.80045013
456,5360481.753148528
458,5642340.51989113
460,5840026.884094846
462,5963007.037351938
464,6024011.2104797885
466,6041173.061594803
468,6041500.086986978
470,6041367.650556729
472,6041628.559774532
474,6041459.177293711
476,6041093.541586591
478,6041477.135181562
480,6041184.288941428
482,6041501.523843001
484,6041488.2253368385
486,6041421.726216562
488,6041523.537522445
490,6041252.448325744
492,6041584.619232586
494,6041307.026576119
496,6041763.082716689
498,6041413.908771061
500,6041384.484991838
502,6041416.7834404465
504,6041423.434782221
506,6041508.135547666
508,6041291.006469363
510,6041021.362948331
512,6041379.241208191
514,6041645.825652777
516,6041440.321298485
518,6041943.522605034
520,6041920.367590506
522,6041299.349277798
524,6041316.446087309
526,6041943.246620033
528,6041557.3802815
530,6041454.3137826305
532,6041684.993527682
534,6041431.106582102
536,6041239.813520045
538,6041602.349271165
540,6041381.635495987
542,6041896.127560996
544,6041715.146382225
546,6041175.70014267
548,6040992.4180261735
550,6041236.341471984
552,6041374.198985696
554,6041556.9081597
556,6041756.939356793
558,6041419.235513926
560,6041064.990598465
562,6041402.286220088
564,6041427.671215276
566,6041165.929595971
568,6041202.835595819
570,6041139.640255829
572,6041575.461201365
574,6041409.660007799
576,6041870.1571546635
578,6041619.539564398
580,6041175.234124653
582,6041228.715537129
584,6041323.11983273
586,6041692.951007003
588,6041459.899917991
590,6041559.189819826
592,6041180.951086978
594,6041203.672610349
596,6041709.59355259
598,6041230.899838785
600,6041301.573863976
602,6041305.873294384
604,6041295.0175868925
606,6041453.904276245
608,6041410.514791376
610,6041390.418515462
612,6041303.60872649
614,6041392.867568846
616,6041718.130657121
618,6041336.295545239
620,6040756.927967093
622,6040919.692795234
624,6041796.191946359
626,6041528.823784414
628,6040240.19255862
630,6039498.026450102
632,6040548.233369758
634,6041101.33274171
636,6040468.588777854
638,6040230.010979066
640,6040970.792612219
642,6041329.590414043
644,6040081.908669271
646,6040090.816523187
648,6041458.146426973
650,6042203.206167488
652,6042247.073951752
654,6041896.618458088
656,6041458.708364827
658,6041240.212350297
660,6041571.428156227
662,6041377.066304038
664,6041484.405916845
666,6041443.7444195375
668,6041107.99078606
670,6041563.76099306
672,6041267.206276634
674,6041163.483843293
676,6041536.128915834
678,6041346.243453491
680,6041150.289956291
682,6041410.314774397
684,6041560.064687422
686,6041447.9187860545
688,6040955.81893969
690,6041315.875338955
692,6041350.307975556
694,6041850.281893436
696,6041497.367671758
698,6041199.302168769
700,6041453.64627868
702,6041828.693192877
704,6040860.42770877
706,6041675.622792104
708,6041571.681644926
710,6041346.454989626
712,6041546.234560798
714,6041858.824615336
716,6041142.5820534965
718,6041286.403162461
720,6041703.1207177285
722,6041807.585318082
724,6041329.8607438
726,6041296.890614847
728,6041527.288726995
730,6041723.792105585
732,6041192.330811199
734,6041150.1016538385
736,6041704.398114255
738,6041255.137810724
740,6041344.973276121
742,6041402.044472554
744,6041509.896928869
746,6041611.23472158
748,6041281.529689905
750,6041392.455248062
752,6040981.1977447625
754,6041295.389267499
756,6041239.4416478425
758,6041271.659960353
760,6041533.037164191
762,6033170.558480699
764,5997309.196911797
766,5919816.184365741
768,5789128.623488824
770,5591227.92157777
772,5331562.926099856
774,5030824.995786329
776,4699258.250554136
778,4346757.545140255
780,3987299.429810042
782,3631624.3336451664
784,3286378.269654552
786,2964560.482130975
788,2677357.907088312
790,2431812.978824052
792,2227005.630354121
794,2056991.6675400746
796,1912122.286436368
798,1783069.2196949078
800,1663500.214270693
802,1548744.6415391257
804,1440089.3704584274
806,1338355.7413583586
808,1246002.4351940232
810,1164641.9993123675
812,1094313.8934356393
814,1033315.1507154639
816,979276.3012057306
818,928884.3489745458
820,880151.1850921786
822,831067.2044299131
824,781134.7456778135
826,731197.4373941015
828,682133.9307999852
830,635157.065687494
832,590767.9318637582
834,549817.9262336656
836,511926.9827578021
838,476508.58827418834
840,442988.8091633684
842,410512.7161371145
844,378885.83903410326
846,347759.8550145639
848,317145.038704723
850,286997.5341464601
852,257814.11993689087
854,229635.74166079867
856,202883.51438950063
858,177548.2583061767
860,153963.78261275878
862,132580.8515415665
864,113288.53811543316
866,96239.40874515912
868,81413.00428997858
870,68826.20859127876
872,58133.754868965356
874,49160.33286656182
876,41666.7751322839
878,35497.06635140222
880,30295.018445045593
882,25695.68578759554
884,21591.37521759164
886,17852.922836174053
888,14389.809163301048
890,11160.697668091325
892,8122.388938503005
894,5540.658797514908
896,3560.8201047046186
898,2067.8082667675035
900,1036.1379326991748
902,389.7262820249188
904,91.05201843704549
906,33.85408597934234
908,10.175341117526877
910,0.4798427012002451
912,-3.482973111878331
914,2.393407046365594
916,-5.54246237681494
918,-0.29287613119402345
920,-2.3379566926154904
922,4.289920058427215
924,0.9442159283387628
926,-2.7336637591896857
928,1.0006701908683229
930,-1.3057717257606596
932,1.5404292547943992
934,4.001179039549514
936,-1.414773894536123
938,3.248233771030033
940,0.4896997775772239
942,3.269850699677664
944,0.8757233738836303
946,1.835094323646329
948,-1.5911823412967454
950,0.22756291881490442
952,1.4645588048001232
954,3.043621082643513
956,0.027056986644400358
958,-0.10659459427895207
960,-0.7023202398106899
962,-2.0064684457895754
964,-3.0020412361544704
966,-2.2327748367148637
968,-2.2451702637504916
970,3.087313082970052
972,-1.474238603491238
974,-1.3750943045639343
976,0.09099228775895851
978,-4.359327552662422
980,0.17173412192045567
982,0.5883557203648353
984,-0.6237451035931326
986,0.24693956783995888
988,-1.1733774690472267
990,1.089032408027303
992,0.5823660453244227
994,0.22070109661222787
996,-2.4283186811864717
998,-1.410528741235163
1000,-1.602076920989911
1002,-0.0723170684905614
1004,-2.2803875418149437
1006,-0.15982876153475076
1008,-1.1915084778267833
1010,-1.9937058314243845
1012,1.598653035792643
1014,-0.6487785841223528
1016,2.324849570691117
1018,0.7091701747258704
