wave,flux
336,100.71362747874966
338,166.55331926500043
340,296.600270435273
342,498.67125018654076
344,767.2224529123224
346,1128.3321752043046
348,1553.2286684710227
350,2078.32039773121
352,2715.7010568633223
354,3520.182839093358
356,4528.526848044028
358,5776.047677352535
360,7313.419057251702
362,9244.537646722383
364,11572.351553878785
366,14276.020667124118
368,17458.69307649852
370,21162.15644845396
372,25351.068191266386
374,30148.282354552568
376,36188.91489107303
378,44488.06426055185
380,55798.67488231122
382,70022.0508117595
384,86468.1559739511
386,104597.97691431055
388,124831.21866364102
390,149783.27839588563
392,183092.14375277347
394,225696.00159206163
396,275211.0068476909
398,327544.6458364766
400,380879.8623294352
402,435004.6938289178
404,490593.4704647411
406,548477.947241173
408,610623.0763133548
410,679056.4397422236
412,754520.593032709
414,837242.333319538
416,927655.7891154632
418,1028517.3903941129
420,1142802.1068932903
422,1273314.4489526788
424,1420767.18743328
426,1585061.3817157086
428,1765389.492915975
430,1959448.1589870784
432,2162380.6734082284
434,2368363.277610015
436,2572956.4734220086
438,2773720.576463229
440,2972169.079022033
442,3169614.730303197
444,3366876.9962192257
446,3563728.572896874
448,3758257.1090187514
450,3950758.9733916777
452,4143829.014862894
454,4345286.978904571
456,4561529.241265338
458,4797159.057168884
460,5048337.08092786
462,5299485.776653844
464,5530765.907360626
466,5724696.009541675
468,5867826.387736794
470,5959662.634128981
472,6011009.777410401
474,6034085.197614466
476,6040948.916863753
478,6041480.28042961
480,6041170.270292174
482,6041644.598601079
484,6041788.017024214
486,6041102.685661505
488,6041364.621946048
490,6041758.902152206
492,6041408.115136763
494,6041416.4444382135
496,6041167.917588222
498,6041948.164231523
500,6041456.110888871
502,6041023.654669217
504,6041098.845991692
506,6041730.024397624
508,6041128.375503064
510,6041561.074410863
512,6041237.0021457365
514,6041346.082782381
516,6041408.755507007
518,6041197.056509185
520,6041346.8338367855
522,6041073.351927263
524,6041334.781676974
526,6041543.9990095915
528,6041423.122487892
530,6040915.606521487
532,6041764.694735123
534,6041446.4070193255
536,6041432.51802246
538,6041142.938485619
540,6041524.587136761
542,6041576.406955969
544,6041531.30099615
546,6041411.920128229
548,6041107.347389457
550,6041357.7612648625
552,6041439.304075409
554,6041345.513963861
556,6041451.263681368
558,6041570.470473441
560,6041321.530624995
562,6041360.695711136
564,6041250.282296167
566,6041030.271910682
568,6041643.553548253
570,6042007.07083862
572,6041326.539630935
574,6041375.580347205
576,6041079.015320933
578,6041344.462983725
580,6041484.848136
582,6041308.129134548
584,6041416.116412955
586,6041073.751232662
588,6041379.50729488
590,6041376.0752478745
592,6041406.393731176
594,6041509.815277659
596,6041213.287041782
598,6040859.641223598
600,6041397.1360343285
602,6041532.101471375
604,6041153.025850896
606,6041169.642428379
608,6041689.878373076
610,6041432.572323009
612,6041262.82934075
614,6041328.312785095
616,6041049.1092649745
618,6041037.542328436
620,6040584.166734791
622,6040234.993177499
624,6041252.378309336
626,6042468.320987489
628,6041854.94931218
630,6040243.558267844
632,6041269.429954937
634,6041701.718101048
636,6040456.151105881
638,6040037.323481918
640,6041197.82367128
642,6041913.25889448
644,6040295.268221314
646,6039956.650497657
648,6040627.541606303
650,6039770.500653899
652,6039377.246049989
654,6040200.696704818
656,6041259.942024089
658,6042394.092217237
660,6043130.706168471
662,6042552.562459306
664,6041585.909144437
666,6041316.631248884
668,6041316.096066733
670,6041291.949343392
672,6041255.7718886
674,6041229.216597411
676,6041233.936364878
678,6041291.584086058
680,6041147.812793804
682,6041410.170846541
684,6041560.056797848
686,6041447.918372632
688,6040955.818918665
690,6041315.875337889
692,6041350.3079755
694,6041850.281893433
696,6041497.367671758
698,6041199.302168769
700,6041453.64627868
702,6041828.693192877
704,6040860.42770877
706,6041675.622792104
708,6041571.681644926
710,6041346.454989626
712,6041546.234560798
714,6041858.824615336
716,6041142.5820534965
718,6041286.403162461
720,6041703.1207177285
722,6041807.585318082
724,6041329.8607438
726,6041296.890614847
728,6041527.288726995
730,6041723.792105585
732,6041192.330811199
734,6041150.1016538385
736,6041704.398114255
738,6041255.137810724
740,6041344.973276121
742,6041402.044472554
744,6041509.896928869
746,6041611.23472158
748,6041281.529689905
750,6041392.455248062
752,6040981.1977447625
754,6041295.389267499
756,6041239.4416478425
758,6041271.659960353
760,6041533.037164191
762,6033170.558480699
764,5997309.196911797
766,5919816.184365741
768,5789128.623488824
770,5591227.92157777
772,5331562.926099856
774,5030824.995786329
776,4699258.250554136
778,4346757.545140255
780,3987299.429810042
782,3631624.3336451664
784,3286378.269654552
786,2964560.482130975
788,2677357.907088312
790,2431812.978824052
792,2227005.630354121
794,2056991.6675400746
796,1912122.286436368
798,1783069.2196949078
800,1663500.214270693
802,1548744.6415391257
804,1440089.3704584274
806,1338355.7413583586
808,1246002.4351940232
810,1164641.9993123675
812,1094313.8934356393
814,1033315.1507154639
816,979276.3012057306
818,928884.3489745458
820,880151.1850921786
822,831067.2044299131
824,781134.7456778135
826,731197.4373941015
828,682133.9307999852
830,635157.065687494
832,590767.9318637582
834,549817.9262336656
836,511926.9827578021
838,476508.58827418834
840,442988.8091633684
842,410512.7161371145
844,378885.83903410326
846,347759.8550145639
848,317145.038704723
850,286997.5341464601
852,257814.11993689087
854,229635.74166079867
856,202883.51438950063
858,177548.2583061767
860,153963.78261275878
862,132580.8515415665
864,113288.53811543316
866,96239.40874515912
868,81413.00428997858
870,68826.20859127876
872,58133.754868965356
874,49160.33286656182
876,41666.7751322839
878,35497.06635140222
880,30295.018445045593
882,25695.68578759554
884,21591.37521759164
886,17852.922836174053
888,14389.809163301048
890,11160.697668091325
892,8122.388938503005
894,5540.658797514908
896,3560.8201047046186
898,2067.8082667675035
900,1036.1379326991748
902,389.7262820249188
904,91.05201843704549
906,33.85408597934234
908,10.175341117526877
910,0.4798427012002451
912,-3.482973111878331
914,2.393407046365594
916,-5.54246237681494
918,-0.29287613119402345
920,-2.3379566926154904
922,4.289920058427215
924,0.9442159283387628
926,-2.7336637591896857
928,1.0006701908683229
930,-1.3057717257606596
932,1.5404292547943992
934,4.001179039549514
936,-1.414773894536123
938,3.248233771030033
940,0.4896997775772239
942,3.269850699677664
944,0.8757233738836303
946,1.835094323646329
948,-1.5911823412967454
950,0.22756291881490442
952,1.4645588048001232
954,3.043621082643513
956,0.027056986644400358
958,-0.10659459427895207
960,-0.7023202398106899
962,-2.0064684457895754
964,-3.0020412361544704
966,-2.2327748367148637
968,-2.2451702637504916
970,3.087313082970052
972,-1.474238603491238
974,-1.3750943045639343
976,0.09099228775895851
978,-4.359327552662422
980,0.17173412192045567
982,0.5883557203648353
984,-0.6237451035931326
986,0.24693956783995888
988,-1.1733774690472267
990,1.089032408027303
992,0.5823660453244227
994,0.22070109661222787
996,-2.4283186811864717
998,-1.410528741235163
1000,-1.602076920989911
1002,-0.0723170684905614
1004,-2.2803875418149437
1006,-0.15982876153475076
1008,-1.1915084778267833
1010,-1.9937058314243845
1012,1.598653035792643
1014,-0.6487785841223528
1016,2.324849570691117
1018,0.7091701747258704
