wave,flux
336,269235.501566291
338,374858.6054460841
340,453037.8178616067
342,477342.92117342964
344,468701.83405333135
346,494605.5621144101
348,619467.2652699472
350,825271.0347681451
352,1013001.5936747945
354,1105498.814166399
356,1117430.6677673322
358,1104548.2690442712
360,1090862.1803475847
362,1081133.096856102
364,1092517.6567981467
366,1140856.766515056
368,1222547.4522978035
370,1323067.0681210705
372,1426904.794677591
374,1528557.366426728
376,1641109.6274044248
378,1782746.9363056277
380,1949426.0170616927
382,2113556.3581360853
384,2249209.6322415937
386,2357304.981622718
388,2469877.670939588
390,2656080.4683167706
392,3009313.341812425
394,3571017.7721870854
396,4294713.936967815
398,5010991.952840461
400,5570348.810961497
402,5886036.001910795
404,6013496.443068428
406,6041189.99186187
408,6041468.22799522
410,6041204.307789728
412,6041660.237660088
414,6041444.460168768
416,6041682.194452978
418,6041306.295114686
420,6041400.883282031
422,6041521.175982585
424,6041696.885925926
426,6041755.840076395
428,6041084.022335472
430,6041834.99242328
432,6041228.4824332325
434,6041435.64927084
436,6041697.891397984
438,6041261.466613681
440,6041453.861427335
442,6041284.589469805
444,6041443.189251323
446,6041744.1422397
448,6040847.76610484
450,6041482.651457431
452,6041634.8081242135
454,6041638.599260654
456,6041438.192094245
458,6041349.680957096
460,6041514.9658812145
462,6041290.724686118
464,6041663.0896481965
466,6041763.682157922
468,6041198.120083974
470,6041549.1075465195
472,6041440.94873043
474,6041910.399854495
476,6040944.404783037
478,6041225.692509951
480,6041171.264731669
482,6041771.373672109
484,6041086.899295551
486,6041148.108232898
488,6041798.739766932
490,6041067.396592503
492,6041282.251004073
494,6041592.121454824
496,6041618.683214483
498,6041862.199386977
500,6041691.998187058
502,6041393.433887833
504,6041597.834247909
506,6041317.986273754
508,6041650.347318161
510,6041337.60534097
512,6041305.881232007
514,6041654.036173571
516,6041106.092572954
518,6041445.771751158
520,6041284.398980293
522,6041463.176857659
524,6041425.448242917
526,6041469.000316854
528,6041495.021091869
530,6041609.925907254
532,6041446.019262817
534,6041338.783660199
536,6041292.190877413
538,6041218.073039749
540,6041335.32546903
542,6041746.493009339
544,6041194.257603876
546,6041374.325645526
548,6041165.143968309
550,6041470.1805189755
552,6041697.170174929
554,6041390.062470333
556,6041466.846766579
558,6041431.8713008
560,6041336.560350212
562,6041526.065949492
564,6041598.866130258
566,6041105.984628921
568,6041114.533538139
570,6041264.969266646
572,6040964.959715525
574,6041290.367905292
576,6041465.606986874
578,6041512.957154725
580,6041478.877568485
582,6041188.289077063
584,6041172.692500883
586,6041617.457066912
588,6041342.550172724
590,6041238.026611723
592,6041491.490997857
594,6041577.411664074
596,6041422.902807977
598,6041393.740088322
600,6041366.761493676
602,6041607.406498197
604,6041502.660764643
606,6041143.8089040145
608,6041380.503012507
610,6041348.214401372
612,6041185.351857472
614,6041332.814698667
616,6041637.285286178
618,6041315.090984622
620,6040917.465750338
622,6041235.224124316
624,6042005.612586976
626,6041375.210822538
628,6040634.388693732
630,6040578.757210208
632,6039898.907627858
634,6041273.249329547
636,6043079.6337367315
638,6041164.938746507
640,6040212.641616836
642,6041080.6677551875
644,6041143.248476347
646,6040743.583226979
648,6042015.75077719
650,6045441.300690671
652,6043926.373128376
654,6039963.087468061
656,6041233.901226271
658,6041544.224171786
660,6041552.205112993
662,6041377.467053808
664,6041484.483627915
666,6041443.749824265
668,6041107.991036489
670,6041563.760999355
672,6041267.206276457
674,6041163.483843259
676,6041536.128915831
678,6041346.24345349
680,6041150.289956291
682,6041410.314774397
684,6041560.064687422
686,6041447.9187860545
688,6040955.81893969
690,6041315.875338955
692,6041350.307975556
694,6041850.281893436
696,6041497.367671758
698,6041199.302168769
700,6041453.64627868
702,6041828.693192877
704,6040860.42770877
706,6041675.622792104
708,6041571.681644926
710,6041346.454989626
712,6041546.234560798
714,6041858.824615336
716,6041142.5820534965
718,6041286.403162461
720,6041703.1207177285
722,6041807.585318082
724,6041329.8607438
726,6041296.890614847
728,6041527.288726995
730,6041723.792105585
732,6041192.330811199
734,6041150.1016538385
736,6041704.398114255
738,6041255.137810724
740,6041344.973276121
742,6041402.044472554
744,6041509.896928869
746,6041611.23472158
748,6041281.529689905
750,6041392.455248062
752,6040981.1977447625
754,6041295.389267499
756,6041239.4416478425
758,6041271.659960353
760,6041533.037164191
762,6033170.558480699
764,5997309.196911797
766,5919816.184365741
768,5789128.623488824
770,5591227.92157777
772,5331562.926099856
774,5030824.995786329
776,4699258.250554136
778,4346757.545140255
780,3987299.429810042
782,3631624.3336451664
784,3286378.269654552
786,2964560.482130975
788,2677357.907088312
790,2431812.978824052
792,2227005.630354121
794,2056991.6675400746
796,1912122.286436368
798,1783069.2196949078
800,1663500.214270693
802,1548744.6415391257
804,1440089.3704584274
806,1338355.7413583586
808,1246002.4351940232
810,1164641.9993123675
812,1094313.8934356393
814,1033315.1507154639
816,979276.3012057306
818,928884.3489745458
820,880151.1850921786
822,831067.2044299131
824,781134.7456778135
826,731197.4373941015
828,682133.9307999852
830,635157.065687494
832,590767.9318637582
834,549817.9262336656
836,511926.9827578021
838,476508.58827418834
840,442988.8091633684
842,410512.7161371145
844,378885.83903410326
846,347759.8550145639
848,317145.038704723
850,286997.5341464601
852,257814.11993689087
854,229635.74166079867
856,202883.51438950063
858,177548.2583061767
860,153963.78261275878
862,132580.8515415665
864,113288.53811543316
866,96239.40874515912
868,81413.00428997858
870,68826.20859127876
872,58133.754868965356
874,49160.33286656182
876,41666.7751322839
878,35497.06635140222
880,30295.018445045593
882,25695.68578759554
884,21591.37521759164
886,17852.922836174053
888,14389.809163301048
890,11160.697668091325
892,8122.388938503005
894,5540.658797514908
896,3560.8201047046186
898,2067.8082667675035
900,1036.1379326991748
902,389.7262820249188
904,91.05201843704549
906,33.85408597934234
908,10.175341117526877
910,0.4798427012002451
912,-3.482973111878331
914,2.393407046365594
916,-5.54246237681494
918,-0.29287613119402345
920,-2.3379566926154904
922,4.289920058427215
924,0.9442159283387628
926,-2.7336637591896857
928,1.0006701908683229
930,-1.3057717257606596
932,1.5404292547943992
934,4.001179039549514
936,-1.414773894536123
938,3.248233771030033
940,0.4896997775772239
942,3.269850699677664
944,0.8757233738836303
946,1.835094323646329
948,-1.5911823412967454
950,0.22756291881490442
952,1.4645588048001232
954,3.043621082643513
956,0.027056986644400358
958,-0.10659459427895207
960,-0.7023202398106899
962,-2.0064684457895754
964,-3.0020412361544704
966,-2.2327748367148637
968,-2.2451702637504916
970,3.087313082970052
972,-1.474238603491238
974,-1.3750943045639343
976,0.09099228775895851
978,-4.359327552662422
980,0.17173412192045567
982,0.5883557203648353
984,-0.6237451035931326
986,0.24693956783995888
988,-1.1733774690472267
990,1.089032408027303
992,0.5823660453244227
994,0.22070109661222787
996,-2.4283186811864717
998,-1.410528741235163
1000,-1.602076920989911
1002,-0.0723170684905614
1004,-2.2803875418149437
1006,-0.15982876153475076
1008,-1.1915084778267833
1010,-1.9937058314243845
1012,1.598653035792643
1014,-0.6487785841223528
1016,2.324849570691117
1018,0.7091701747258704
