wave,flux
336,77.41065018934232
338,99.93946486325979
340,160.98061271761117
342,307.58444405528
344,530.669529159728
346,808.8931762256686
348,1207.750986536852
350,1728.7799636146813
352,2383.3570601666484
354,3179.802524273986
356,4090.7098331998645
358,5141.505642781856
360,6465.834336873076
362,8190.088469368918
364,10328.719795284043
366,12948.3115027584
368,16285.49507965596
370,20659.730830443845
372,26290.10083202396
374,33081.86876464073
376,40618.66718623934
378,48569.54585533914
380,57218.41375642572
382,67170.36964004622
384,78739.75502129209
386,91665.66445330945
388,106120.15864347397
390,123993.77657956671
392,149011.79511309817
394,184193.7053505863
396,229804.61385890003
398,282934.89551216527
400,340004.5823028321
402,399235.7528196142
404,461597.42446704436
406,530715.1200756459
408,609144.1733237448
410,697471.1660613181
412,793106.3670469483
414,891792.48396913
416,989937.1102265934
418,1086470.1665210126
420,1183114.0892960113
422,1285579.2481380661
424,1400800.139267847
426,1535438.5131031573
428,1693549.990033912
430,1873951.6923577022
432,2072855.4212911206
434,2285822.9948091083
436,2511286.1397936544
438,2751218.1126650586
440,3010368.512615732
442,3290640.957301195
444,3592752.7771482687
446,3911020.359500766
448,4239762.184135734
450,4571786.818650382
452,4899842.786982362
454,5207303.48124003
456,5478702.147114473
458,5700418.624358101
460,5860228.902797956
462,5959434.379156465
464,6013069.35558079
466,6036465.80010942
468,6041332.242383309
470,6041376.816190214
472,6041736.517396252
474,6041001.254860662
476,6041550.265961423
478,6041402.474211684
480,6041457.445306591
482,6041420.108515345
484,6040953.742583079
486,6041188.730711667
488,6041708.671713082
490,6041857.906424833
492,6041370.513324487
494,6041292.892177067
496,6041231.488549229
498,6040940.248930484
500,6041724.286264274
502,6040747.7537328005
504,6041470.841574057
506,6041337.348362358
508,6040934.037554674
510,6041597.420994636
512,6041289.859367673
514,6041374.326585922
516,6041357.917117091
518,6041516.381405524
520,6041356.803098998
522,6041276.40857588
524,6041491.31593303
526,6041171.559930326
528,6041168.746811852
530,6041435.859228148
532,6041680.5035537835
534,6041638.0994115155
536,6041290.438359294
538,6041038.967678183
540,6041293.34782028
542,6041318.275769247
544,6041423.9944064915
546,6041244.060861607
548,6041510.215873426
550,6041213.186970013
552,6041395.689085319
554,6041411.211642262
556,6041328.864367433
558,6041449.53114237
560,6041644.683279558
562,6041509.961666138
564,6041714.913819778
566,6041761.265031623
568,6041411.310732572
570,6040930.571027377
572,6041551.637670279
574,6041436.683886631
576,6041468.013734122
578,6041453.926715109
580,6041388.870642363
582,6041358.718952658
584,6041187.477956476
586,6041237.831439654
588,6041363.786483059
590,6041318.741972208
592,6041423.172815481
594,6041372.263542644
596,6041282.61484482
598,6041553.814361234
600,6041121.084157499
602,6041396.305612383
604,6041850.989454918
606,6041687.731871636
608,6041480.414683921
610,6041341.765923564
612,6041444.919415324
614,6041549.168604153
616,6041382.30417247
618,6041314.827116157
620,6040984.727625135
622,6040788.297070146
624,6041278.959929598
626,6041192.803529434
628,6040848.380794633
630,6041023.542923809
632,6041536.897197863
634,6040877.849536775
636,6040185.277324999
638,6041731.3187877815
640,6042184.665754458
642,6041047.383453238
644,6040334.554247543
646,6040194.141231595
648,6040421.325272622
650,6040811.287237862
652,6041159.2079945505
654,6041260.268409925
656,6041142.817611764
658,6041510.890165807
660,6041551.246732809
662,6041377.487033509
664,6041484.487502264
666,6041443.750093725
668,6041107.991048975
670,6041563.76099967
672,6041267.206276448
674,6041163.483843256
676,6041536.128915831
678,6041346.24345349
680,6041150.289956291
682,6041410.314774397
684,6041560.064687422
686,6041447.9187860545
688,6040955.81893969
690,6041315.875338955
692,6041350.307975556
694,6041850.281893436
696,6041497.367671758
698,6041199.302168769
700,6041453.64627868
702,6041828.693192877
704,6040860.42770877
706,6041675.622792104
708,6041571.681644926
710,6041346.454989626
712,6041546.234560798
714,6041858.824615336
716,6041142.5820534965
718,6041286.403162461
720,6041703.1207177285
722,6041807.585318082
724,6041329.8607438
726,6041296.890614847
728,6041527.288726995
730,6041723.792105585
732,6041192.330811199
734,6041150.1016538385
736,6041704.398114255
738,6041255.137810724
740,6041344.973276121
742,6041402.044472554
744,6041509.896928869
746,6041611.23472158
748,6041281.529689905
750,6041392.455248062
752,6040981.1977447625
754,6041295.389267499
756,6041239.4416478425
758,6041271.659960353
760,6041533.037164191
762,6033170.558480699
764,5997309.196911797
766,5919816.184365741
768,5789128.623488824
770,5591227.92157777
772,5331562.926099856
774,5030824.995786329
776,4699258.250554136
778,4346757.545140255
780,3987299.429810042
782,3631624.3336451664
784,3286378.269654552
786,2964560.482130975
788,2677357.907088312
790,2431812.978824052
792,2227005.630354121
794,2056991.6675400746
796,1912122.286436368
798,1783069.2196949078
800,1663500.214270693
802,1548744.6415391257
804,1440089.3704584274
806,1338355.7413583586
808,1246002.4351940232
810,1164641.9993123675
812,1094313.8934356393
814,1033315.1507154639
816,979276.3012057306
818,928884.3489745458
820,880151.1850921786
822,831067.2044299131
824,781134.7456778135
826,731197.4373941015
828,682133.9307999852
830,635157.065687494
832,590767.9318637582
834,549817.9262336656
836,511926.9827578021
838,476508.58827418834
840,442988.8091633684
842,410512.7161371145
844,378885.83903410326
846,347759.8550145639
848,317145.038704723
850,286997.5341464601
852,257814.11993689087
854,229635.74166079867
856,202883.51438950063
858,177548.2583061767
860,153963.78261275878
862,132580.8515415665
864,113288.53811543316
866,96239.40874515912
868,81413.00428997858
870,68826.20859127876
872,58133.754868965356
874,49160.33286656182
876,41666.7751322839
878,35497.06635140222
880,30295.018445045593
882,25695.68578759554
884,21591.37521759164
886,17852.922836174053
888,14389.809163301048
890,11160.697668091325
892,8122.388938503005
894,5540.658797514908
896,3560.8201047046186
898,2067.8082667675035
900,1036.1379326991748
902,389.7262820249188
904,91.05201843704549
906,33.85408597934234
908,10.175341117526877
910,0.4798427012002451
912,-3.482973111878331
914,2.393407046365594
916,-5.54246237681494
918,-0.29287613119402345
920,-2.3379566926154904
922,4.289920058427215
924,0.9442159283387628
926,-2.7336637591896857
928,1.0006701908683229
930,-1.3057717257606596
932,1.5404292547943992
934,4.001179039549514
936,-1.414773894536123
938,3.248233771030033
940,0.4896997775772239
942,3.269850699677664
944,0.8757233738836303
946,1.835094323646329
948,-1.5911823412967454
950,0.22756291881490442
952,1.4645588048001232
954,3.043621082643513
956,0.027056986644400358
958,-0.10659459427895207
960,-0.7023202398106899
962,-2.0064684457895754
964,-3.0020412361544704
966,-2.2327748367148637
968,-2.2451702637504916
970,3.087313082970052
972,-1.474238603491238
974,-1.3750943045639343
976,0.09099228775895851
978,-4.359327552662422
980,0.17173412192045567
982,0.5883557203648353
984,-0.6237451035931326
986,0.24693956783995888
988,-1.1733774690472267
990,1.089032408027303
992,0.5823660453244227
994,0.22070109661222787
996,-2.4283186811864717
998,-1.410528741235163
1000,-1.602076920989911
1002,-0.0723170684905614
1004,-2.2803875418149437
1006,-0.15982876153475076
1008,-1.1915084778267833
1010,-1.9937058314243845
1012,1.598653035792643
1014,-0.6487785841223528
1016,2.324849570691117
1018,0.7091701747258704
