wave,flux
336,276.30167456761404
338,381.9554647602763
340,593.0440471833367
342,1000.1247475213731
344,1577.153412397647
346,2297.310158238781
348,3206.8021112597175
350,4281.472003569318
352,5471.424822083949
354,6817.615552908806
356,8348.281427904232
358,10119.594261842203
360,12303.046401826885
362,14928.889294126422
364,17949.495395252008
366,21507.986630349264
368,26003.995498381166
370,31778.737715640193
372,39412.237235295186
374,50026.249219029174
376,64999.46268763704
378,84395.29315968155
380,106382.0237077305
382,128206.42859498522
384,148422.20089524743
386,168137.34660565274
388,191365.23083946388
390,224385.69886429206
392,274081.75375320786
394,344441.1574118336
396,433877.2020006951
398,535660.8773010637
400,641782.6549463393
402,746517.4794139114
404,848429.6667426709
406,948792.3770891991
408,1048076.1469146461
410,1144287.2091725823
412,1233428.359879954
414,1313805.3875926726
416,1388017.5623334432
418,1463401.529170038
420,1550065.3154174504
422,1656286.2914782665
424,1787046.679636929
426,1940851.0736804483
428,2111975.7483709985
430,2289749.348262118
432,2464446.341368318
434,2633833.782743379
436,2804126.8446248006
438,2988485.7403687174
440,3202082.4656802495
442,3454179.7925285967
444,3745000.6805765093
446,4067606.0982447187
448,4410577.773877229
450,4761268.255989771
452,5097630.656911424
454,5398900.334304158
456,5648113.667659628
458,5830633.026010162
460,5945089.565960158
462,6008161.820120396
464,6034872.790124727
466,6041326.440143781
468,6041187.180391481
470,6041368.449516397
472,6041507.357007519
474,6041370.228154872
476,6041500.571184817
478,6041408.651768258
480,6041254.309039179
482,6041817.95319344
484,6041678.507827558
486,6041222.569998695
488,6041676.944765717
490,6041697.577501204
492,6041090.0453942865
494,6041516.508610472
496,6041014.140778663
498,6041777.410616158
500,6041596.033354843
502,6041262.998665157
504,6041179.30715963
506,6041307.67252629
508,6041928.53393958
510,6041310.65850943
512,6041197.018615466
514,6041237.167799529
516,6041260.501826698
518,6041533.999480145
520,6041473.0936237145
522,6041367.120549131
524,6041268.011494308
526,6041265.892162765
528,6041411.325741669
530,6040817.771693216
532,6041500.231026105
534,6041111.3570802305
536,6041037.21353079
538,6041476.891042033
540,6041840.310138479
542,6041218.547798651
544,6041063.833527331
546,6041281.013289233
548,6041167.698892222
550,6041164.594786819
552,6041290.352468133
554,6041392.783574097
556,6041271.9284757525
558,6041182.356748455
560,6041642.863089967
562,6041397.234068818
564,6041380.982116393
566,6041131.800730971
568,6040999.153054396
570,6041872.285467506
572,6041432.219871706
574,6041612.622506492
576,6041467.133352522
578,6040942.230195465
580,6041435.262440018
582,6041644.773826052
584,6041028.20391535
586,6041711.837172316
588,6041714.595104381
590,6041727.814196972
592,6041573.757188209
594,6041204.285887547
596,6041193.050513414
598,6041633.628668388
600,6041680.090845145
602,6041524.258839762
604,6041373.942099784
606,6041172.317635458
608,6040970.962321488
610,6041142.812296472
612,6041157.0503397565
614,6041234.778634136
616,6041680.982429827
618,6041379.748292102
620,6041534.04508316
622,6042808.70437682
624,6043782.7260769615
626,6041869.001856093
628,6040005.7099017035
630,6040254.956827074
632,6040222.130274239
634,6040624.279373824
636,6041717.535278636
638,6042497.7761032935
640,6042513.329708694
642,6041776.403407235
644,6040836.149385039
646,6040908.2893965095
648,6041518.546933535
650,6041593.492832122
652,6041302.83359267
654,6041324.642678816
656,6041341.621692287
658,6041057.276698736
660,6041954.162324276
662,6041337.313067701
664,6041286.001867048
666,6041429.945607489
668,6041107.351413842
670,6041563.744920621
672,6041267.206726234
674,6041163.483934271
676,6041536.128923841
678,6041346.243454053
680,6041150.289956327
682,6041410.314774399
684,6041560.0646874225
686,6041447.9187860545
688,6040955.81893969
690,6041315.875338955
692,6041350.307975556
694,6041850.281893436
696,6041497.367671758
698,6041199.302168769
700,6041453.64627868
702,6041828.693192877
704,6040860.42770877
706,6041675.622792104
708,6041571.681644926
710,6041346.454989626
712,6041546.234560798
714,6041858.824615336
716,6041142.5820534965
718,6041286.403162461
720,6041703.1207177285
722,6041807.585318082
724,6041329.8607438
726,6041296.890614847
728,6041527.288726995
730,6041723.792105585
732,6041192.330811199
734,6041150.1016538385
736,6041704.398114255
738,6041255.137810724
740,6041344.973276121
742,6041402.044472554
744,6041509.896928869
746,6041611.23472158
748,6041281.529689905
750,6041392.455248062
752,6040981.1977447625
754,6041295.389267499
756,6041239.4416478425
758,6041271.659960353
760,6041533.037164191
762,6033170.558480699
764,5997309.196911797
766,5919816.184365741
768,5789128.623488824
770,5591227.92157777
772,5331562.926099856
774,5030824.995786329
776,4699258.250554136
778,4346757.545140255
780,3987299.429810042
782,3631624.3336451664
784,3286378.269654552
786,2964560.482130975
788,2677357.907088312
790,2431812.978824052
792,2227005.630354121
794,2056991.6675400746
796,1912122.286436368
798,1783069.2196949078
800,1663500.214270693
802,1548744.6415391257
804,1440089.3704584274
806,1338355.7413583586
808,1246002.4351940232
810,1164641.9993123675
812,1094313.8934356393
814,1033315.1507154639
816,979276.3012057306
818,928884.3489745458
820,880151.1850921786
822,831067.2044299131
824,781134.7456778135
826,731197.4373941015
828,682133.9307999852
830,635157.065687494
832,590767.9318637582
834,549817.9262336656
836,511926.9827578021
838,476508.58827418834
840,442988.8091633684
842,410512.7161371145
844,378885.83903410326
846,347759.8550145639
848,317145.038704723
850,286997.5341464601
852,257814.11993689087
854,229635.74166079867
856,202883.51438950063
858,177548.2583061767
860,153963.78261275878
862,132580.8515415665
864,113288.53811543316
866,96239.40874515912
868,81413.00428997858
870,68826.20859127876
872,58133.754868965356
874,49160.33286656182
876,41666.7751322839
878,35497.06635140222
880,30295.018445045593
882,25695.68578759554
884,21591.37521759164
886,17852.922836174053
888,14389.809163301048
890,11160.697668091325
892,8122.388938503005
894,5540.658797514908
896,3560.8201047046186
898,2067.8082667675035
900,1036.1379326991748
902,389.7262820249188
904,91.05201843704549
906,33.85408597934234
908,10.175341117526877
910,0.4798427012002451
912,-3.482973111878331
914,2.393407046365594
916,-5.54246237681494
918,-0.29287613119402345
920,-2.3379566926154904
922,4.289920058427215
924,0.9442159283387628
926,-2.7336637591896857
928,1.0006701908683229
930,-1.3057717257606596
932,1.5404292547943992
934,4.001179039549514
936,-1.414773894536123
938,3.248233771030033
940,0.4896997775772239
942,3.269850699677664
944,0.8757233738836303
946,1.835094323646329
948,-1.5911823412967454
950,0.22756291881490442
952,1.4645588048001232
954,3.043621082643513
956,0.027056986644400358
958,-0.10659459427895207
960,-0.7023202398106899
962,-2.0064684457895754
964,-3.0020412361544704
966,-2.2327748367148637
968,-2.2451702637504916
970,3.087313082970052
972,-1.474238603491238
974,-1.3750943045639343
976,0.09099228775895851
978,-4.359327552662422
980,0.17173412192045567
982,0.5883557203648353
984,-0.6237451035931326
986,0.24693956783995888
988,-1.1733774690472267
990,1.089032408027303
992,0.5823660453244227
994,0.22070109661222787
996,-2.4283186811864717
998,-1.410528741235163
1000,-1.602076920989911
1002,-0.0723170684905614
1004,-2.2803875418149437
1006,-0.15982876153475076
1008,-1.1915084778267833
1010,-1.9937058314243845
1012,1.598653035792643
1014,-0.6487785841223528
1016,2.324849570691117
1018,0.7091701747258704
