wave,flux
336,0.5034869580041775
338,0.9983691926266659
340,0.7481482575809963
342,1.2227193808654504
344,-0.6116599601892355
346,1.7328645192100138
348,2.5311332982761647
350,-0.8760096001881991
352,-1.8869115812472756
354,-4.084275669563021
356,4.62272894440685
358,2.24918996873627
360,90.96836667278812
362,590.5147688985677
364,1743.1209319584202
366,3385.1356783797714
368,5118.341300633605
370,6640.737404584456
372,8011.612271962186
374,9394.473893305443
376,10992.205069889547
378,13004.648408544781
380,15573.197403758782
382,18815.606362750324
384,22973.405568804737
386,28254.058742478337
388,34466.78233323768
390,41292.07756266865
392,48904.76965866474
394,57508.492553977405
396,66952.56469790298
398,76497.24789211551
400,85839.42009842572
402,95192.01122297233
404,105091.13422741488
406,116108.61443438583
408,128947.62008305916
410,144431.742707249
412,163135.27732560903
414,185218.23452057855
416,210612.0087323637
418,239765.0930842209
420,274750.4835851906
422,320658.10829972447
424,386277.5333707675
426,484194.063388381
428,628302.840993947
430,828775.8512571304
432,1085434.1788084114
434,1383416.9283290538
436,1694899.8861990399
438,1985266.5442850748
440,2223679.291338719
442,2391406.0277277892
444,2485615.7194778407
446,2519579.3686057446
448,2516761.370587725
450,2504224.4670159686
452,2506904.022981934
454,2545591.407444142
456,2633038.330851775
458,2774279.1432759673
460,2970085.6055349726
462,3214746.53757589
464,3498857.0195180275
466,3816038.2689604326
468,4158721.3535239683
470,4517164.229109021
472,4869451.286610765
474,5198953.971982938
476,5485717.624608572
478,5712322.447547814
480,5867393.750021381
482,5964352.014645503
484,6016923.711028628
486,6038016.789101019
488,6041846.10149019
490,6041413.778818626
492,6041628.392442652
494,6041334.4105891725
496,6041080.336666252
498,6041345.332720555
500,6041392.3740394125
502,6041289.034590986
504,6041540.926595886
506,6041713.650002132
508,6041223.397869082
510,6041707.456260776
512,6041585.066844277
514,6041256.553902218
516,6041810.5475005815
518,6041470.870067351
520,6041661.686430453
522,6041374.941876521
524,6041224.638303195
526,6041219.821307401
528,6041512.128574245
530,6041165.238444527
532,6041233.952650978
534,6041047.426373056
536,6041357.569695606
538,6041319.691556036
540,6041426.913366105
542,6041420.537247583
544,6041091.085303768
546,6041666.713426731
548,6041602.574901699
550,6041425.195599361
552,6041559.669630679
554,6042080.321457817
556,6041292.250446354
558,6041077.800656154
560,6041507.685140471
562,6041231.394743313
564,6041613.995151332
566,6041155.641473561
568,6041353.91161842
570,6041684.31790331
572,6041404.7579721585
574,6041249.568578779
576,6041712.812331707
578,6041617.059274852
580,6041309.695257586
582,6041397.48008524
584,6041624.858927722
586,6041817.153165295
588,6041331.450910082
590,6041053.2421737695
592,6041620.160970233
594,6041793.458072199
596,6041486.19020692
598,6041875.037640757
600,6041448.335558223
602,6041079.37541103
604,6041254.73316373
606,6041626.837617116
608,6041778.529759772
610,6041578.161881386
612,6041369.759585744
614,6041058.73284978
616,6040619.641547892
618,6040953.591789862
620,6041290.037688485
622,6040991.693104301
624,6040646.494473901
626,6041721.772541963
628,6042746.999509261
630,6042330.413738198
632,6041302.837036737
634,6040483.6278781975
636,6040173.409797131
638,6040288.802380639
640,6040899.86465979
642,6041212.493374934
644,6040693.690066647
646,6041406.725267255
648,6042683.656718726
650,6042349.109757708
652,6041214.423604124
654,6040821.094028319
656,6042055.080705063
658,6042591.917618294
660,6041685.597359558
662,6041360.43384474
664,6041178.63237958
666,6040459.041055038
668,6040552.494265965
670,6041434.522060791
672,6041856.688046775
674,6041751.224163579
676,6041466.51290531
678,6041341.337585399
680,6041149.98202482
682,6041410.296882991
684,6041560.063706684
686,6041447.918734662
688,6040955.818937074
690,6041315.875338821
692,6041350.307975549
694,6041850.281893434
696,6041497.367671758
698,6041199.302168769
700,6041453.64627868
702,6041828.693192877
704,6040860.42770877
706,6041675.622792104
708,6041571.681644926
710,6041346.454989626
712,6041546.234560798
714,6041858.824615336
716,6041142.5820534965
718,6041286.403162461
720,6041703.1207177285
722,6041807.585318082
724,6041329.8607438
726,6041296.890614847
728,6041527.288726995
730,6041723.792105585
732,6041192.330811199
734,6041150.1016538385
736,6041704.398114255
738,6041255.137810724
740,6041344.973276121
742,6041402.044472554
744,6041509.896928869
746,6041611.23472158
748,6041281.529689905
750,6041392.455248062
752,6040981.1977447625
754,6041295.389267499
756,6041239.4416478425
758,6041271.659960353
760,6041533.037164191
762,6033170.558480699
764,5997309.196911797
766,5919816.184365741
768,5789128.623488824
770,5591227.92157777
772,5331562.926099856
774,5030824.995786329
776,4699258.250554136
778,4346757.545140255
780,3987299.429810042
782,3631624.3336451664
784,3286378.269654552
786,2964560.482130975
788,2677357.907088312
790,2431812.978824052
792,2227005.630354121
794,2056991.6675400746
796,1912122.286436368
798,1783069.2196949078
800,1663500.214270693
802,1548744.6415391257
804,1440089.3704584274
806,1338355.7413583586
808,1246002.4351940232
810,1164641.9993123675
812,1094313.8934356393
814,1033315.1507154639
816,979276.3012057306
818,928884.3489745458
820,880151.1850921786
822,831067.2044299131
824,781134.7456778135
826,731197.4373941015
828,682133.9307999852
830,635157.065687494
832,590767.9318637582
834,549817.9262336656
836,511926.9827578021
838,476508.58827418834
840,442988.8091633684
842,410512.7161371145
844,378885.83903410326
846,347759.8550145639
848,317145.038704723
850,286997.5341464601
852,257814.11993689087
854,229635.74166079867
856,202883.51438950063
858,177548.2583061767
860,153963.78261275878
862,132580.8515415665
864,113288.53811543316
866,96239.40874515912
868,81413.00428997858
870,68826.20859127876
872,58133.754868965356
874,49160.33286656182
876,41666.7751322839
878,35497.06635140222
880,30295.018445045593
882,25695.68578759554
884,21591.37521759164
886,17852.922836174053
888,14389.809163301048
890,11160.697668091325
892,8122.388938503005
894,5540.658797514908
896,3560.8201047046186
898,2067.8082667675035
900,1036.1379326991748
902,389.7262820249188
904,91.05201843704549
906,33.85408597934234
908,10.175341117526877
910,0.4798427012002451
912,-3.482973111878331
914,2.393407046365594
916,-5.54246237681494
918,-0.29287613119402345
920,-2.3379566926154904
922,4.289920058427215
924,0.9442159283387628
926,-2.7336637591896857
928,1.0006701908683229
930,-1.3057717257606596
932,1.5404292547943992
934,4.001179039549514
936,-1.414773894536123
938,3.248233771030033
940,0.4896997775772239
942,3.269850699677664
944,0.8757233738836303
946,1.835094323646329
948,-1.5911823412967454
950,0.22756291881490442
952,1.4645588048001232
954,3.043621082643513
956,0.027056986644400358
958,-0.10659459427895207
960,-0.7023202398106899
962,-2.0064684457895754
964,-3.0020412361544704
966,-2.2327748367148637
968,-2.2451702637504916
970,3.087313082970052
972,-1.474238603491238
974,-1.3750943045639343
976,0.09099228775895851
978,-4.359327552662422
980,0.17173412192045567
982,0.5883557203648353
984,-0.6237451035931326
986,0.24693956783995888
988,-1.1733774690472267
990,1.089032408027303
992,0.5823660453244227
994,0.22070109661222787
996,-2.4283186811864717
998,-1.410528741235163
1000,-1.602076920989911
1002,-0.0723170684905614
1004,-2.2803875418149437
1006,-0.15982876153475076
1008,-1.1915084778267833
1010,-1.9937058314243845
1012,1.598653035792643
1014,-0.6487785841223528
1016,2.324849570691117
1018,0.7091701747258704
