wave,flux
336,71404.65890938092
338,102822.32569567337
340,141386.11901294792
342,182502.83503669983
344,215555.32387971834
346,231221.4542364553
348,241694.9815730274
350,263891.7049009892
352,287489.86115967325
354,289091.2051112773
356,269323.4706711925
358,254993.7463297086
360,269560.61508185783
362,312140.16675693315
364,366661.580996017
366,424419.352103755
368,488927.86186632974
370,556765.5123698385
372,610419.3446909426
374,640311.137121473
376,666162.9931275715
378,725903.0529351796
380,848472.4575213987
382,1035279.9057362956
384,1261234.6886763016
386,1487060.7499745288
388,1691720.978116644
390,1887812.3475137989
392,2108056.668509843
394,2370994.900786746
396,2659417.554158808
398,2940528.8046128578
400,3192386.025013946
402,3420703.119559208
404,3655853.69432894
406,3940763.608137138
408,4308818.810274768
410,4754336.014900259
412,5212756.074342818
414,5601856.845202129
416,5860667.551809932
418,5989688.127828087
420,6034992.974031134
422,6041700.54433083
424,6041685.938932185
426,6041462.87809985
428,6040957.461189446
430,6041313.261324077
432,6041183.896282958
434,6041838.743407235
436,6041552.371844148
438,6041493.73010593
440,6041407.648665416
442,6041488.153251543
444,6041311.861992161
446,6041578.157581862
448,6041333.777393138
450,6041421.080175856
452,6041059.686762581
454,6041559.200350432
456,6041399.084743049
458,6041487.355529405
460,6041311.066004376
462,6041366.9362074025
464,6041635.857343719
466,6041313.294950334
468,6041349.851327436
470,6041504.490727467
472,6041402.04175779
474,6040871.230985833
476,6041483.095935059
478,6041159.0150846625
480,6041844.326118841
482,6040780.758624924
484,6041462.766641019
486,6041940.585935614
488,6041710.575919778
490,6041302.668678073
492,6041569.743167079
494,6041474.558357707
496,6041384.513071027
498,6041219.459137936
500,6041572.803026871
502,6041358.337310236
504,6041565.213021118
506,6040888.028098154
508,6041146.474658568
510,6040889.019669111
512,6041359.66757345
514,6041543.366845869
516,6041486.84667868
518,6041624.540232707
520,6041230.849392317
522,6041304.046020654
524,6041439.283751945
526,6041580.387978886
528,6041662.777801727
530,6041195.395061379
532,6041527.523754313
534,6041292.27730957
536,6041183.019929413
538,6041475.110144838
540,6041659.346799953
542,6041530.325518416
544,6041491.494022571
546,6041458.200380555
548,6040763.770056909
550,6041168.952171205
552,6041600.275798375
554,6041620.549884481
556,6041420.50680434
558,6041070.743977705
560,6041244.5283414535
562,6041683.866454622
564,6041785.210799495
566,6041465.699988243
568,6041692.345027334
570,6041833.733975291
572,6041328.272621102
574,6041050.623731543
576,6041208.958769204
578,6041446.332098065
580,6041209.514607489
582,6041038.014406879
584,6041397.294051553
586,6041375.554730705
588,6041042.105603719
590,6041383.100269464
592,6041361.244184228
594,6041417.2361418
596,6041770.771688801
598,6041364.664911701
600,6041180.873378131
602,6041419.930958669
604,6041587.582091897
606,6041481.397166217
608,6041435.721743215
610,6041542.334570737
612,6041457.995118444
614,6041104.559785122
616,6040926.624967575
618,6041332.39580148
620,6040875.400687535
622,6040586.244812279
624,6042097.774943425
626,6041934.885255888
628,6041315.112614361
630,6041712.959492483
632,6041654.933191874
634,6041777.021800253
636,6041743.426962845
638,6040637.460011511
640,6040693.247937571
642,6041624.634037806
644,6041565.958850075
646,6041308.5878924765
648,6041641.836572968
650,6041400.124822629
652,6041705.727465374
654,6041397.689668568
656,6041151.216898219
658,6041511.4312213035
660,6041551.2622886
662,6041377.486709211
664,6041484.487439378
666,6041443.750089349
668,6041107.991048771
670,6041563.760999665
672,6041267.2062764475
674,6041163.483843256
676,6041536.128915831
678,6041346.24345349
680,6041150.289956291
682,6041410.314774397
684,6041560.064687422
686,6041447.9187860545
688,6040955.81893969
690,6041315.875338955
692,6041350.307975556
694,6041850.281893436
696,6041497.367671758
698,6041199.302168769
700,6041453.64627868
702,6041828.693192877
704,6040860.42770877
706,6041675.622792104
708,6041571.681644926
710,6041346.454989626
712,6041546.234560798
714,6041858.824615336
716,6041142.5820534965
718,6041286.403162461
720,6041703.1207177285
722,6041807.585318082
724,6041329.8607438
726,6041296.890614847
728,6041527.288726995
730,6041723.792105585
732,6041192.330811199
734,6041150.1016538385
736,6041704.398114255
738,6041255.137810724
740,6041344.973276121
742,6041402.044472554
744,6041509.896928869
746,6041611.23472158
748,6041281.529689905
750,6041392.455248062
752,6040981.1977447625
754,6041295.389267499
756,6041239.4416478425
758,6041271.659960353
760,6041533.037164191
762,6033170.558480699
764,5997309.196911797
766,5919816.184365741
768,5789128.623488824
770,5591227.92157777
772,5331562.926099856
774,5030824.995786329
776,4699258.250554136
778,4346757.545140255
780,3987299.429810042
782,3631624.3336451664
784,3286378.269654552
786,2964560.482130975
788,2677357.907088312
790,2431812.978824052
792,2227005.630354121
794,2056991.6675400746
796,1912122.286436368
798,1783069.2196949078
800,1663500.214270693
802,1548744.6415391257
804,1440089.3704584274
806,1338355.7413583586
808,1246002.4351940232
810,1164641.9993123675
812,1094313.8934356393
814,1033315.1507154639
816,979276.3012057306
818,928884.3489745458
820,880151.1850921786
822,831067.2044299131
824,781134.7456778135
826,731197.4373941015
828,682133.9307999852
830,635157.065687494
832,590767.9318637582
834,549817.9262336656
836,511926.9827578021
838,476508.58827418834
840,442988.8091633684
842,410512.7161371145
844,378885.83903410326
846,347759.8550145639
848,317145.038704723
850,286997.5341464601
852,257814.11993689087
854,229635.74166079867
856,202883.51438950063
858,177548.2583061767
860,153963.78261275878
862,132580.8515415665
864,113288.53811543316
866,96239.40874515912
868,81413.00428997858
870,68826.20859127876
872,58133.754868965356
874,49160.33286656182
876,41666.7751322839
878,35497.06635140222
880,30295.018445045593
882,25695.68578759554
884,21591.37521759164
886,17852.922836174053
888,14389.809163301048
890,11160.697668091325
892,8122.388938503005
894,5540.658797514908
896,3560.8201047046186
898,2067.8082667675035
900,1036.1379326991748
902,389.7262820249188
904,91.05201843704549
906,33.85408597934234
908,10.175341117526877
910,0.4798427012002451
912,-3.482973111878331
914,2.393407046365594
916,-5.54246237681494
918,-0.29287613119402345
920,-2.3379566926154904
922,4.289920058427215
924,0.9442159283387628
926,-2.7336637591896857
928,1.0006701908683229
930,-1.3057717257606596
932,1.5404292547943992
934,4.001179039549514
936,-1.414773894536123
938,3.248233771030033
940,0.4896997775772239
942,3.269850699677664
944,0.8757233738836303
946,1.835094323646329
948,-1.5911823412967454
950,0.22756291881490442
952,1.4645588048001232
954,3.043621082643513
956,0.027056986644400358
958,-0.10659459427895207
960,-0.7023202398106899
962,-2.0064684457895754
964,-3.0020412361544704
966,-2.2327748367148637
968,-2.2451702637504916
970,3.087313082970052
972,-1.474238603491238
974,-1.3750943045639343
976,0.09099228775895851
978,-4.359327552662422
980,0.17173412192045567
982,0.5883557203648353
984,-0.6237451035931326
986,0.24693956783995888
988,-1.1733774690472267
990,1.089032408027303
992,0.5823660453244227
994,0.22070109661222787
996,-2.4283186811864717
998,-1.410528741235163
1000,-1.602076920989911
1002,-0.0723170684905614
1004,-2.2803875418149437
1006,-0.15982876153475076
1008,-1.1915084778267833
1010,-1.9937058314243845
1012,1.598653035792643
1014,-0.6487785841223528
1016,2.324849570691117
1018,0.7091701747258704
