wave,flux
336,24.10600265346286
338,122.85296319762169
340,366.6502451280604
342,740.9525208574471
344,1276.4517587484088
346,1952.822807890708
348,2754.651585455534
350,3676.1910563137467
352,4737.159562606486
354,5938.853383771548
356,7349.031397920309
358,9020.492441294977
360,11006.119618366078
362,13370.693972284667
364,16154.945299377663
366,19470.71274722689
368,23420.761733246516
370,27908.346962323423
372,32825.63055554163
374,38082.318500175585
376,43889.09076074104
378,50528.89560531363
380,58501.09436515459
382,68677.25509823125
384,83265.12123258447
386,105969.68157584938
388,141323.3019440873
390,192939.2429560742
392,261337.83112571284
394,343286.6881893945
396,433618.7985795042
398,527493.579290103
400,622041.2801875343
402,715145.4013915819
404,804864.5324293273
406,891319.8964696947
408,976239.13471689
410,1061592.943485399
412,1147279.1021956594
414,1231675.6457993719
416,1313465.9371119454
418,1394102.0845142568
420,1477838.3065175808
422,1568230.238980202
424,1667349.0132823847
426,1776245.976694978
428,1894999.4758248022
430,2025483.3369186886
432,2169967.3359752023
434,2331674.8568760543
436,2513986.0010958966
438,2720145.9929027352
440,2950068.9459443954
442,3200340.597310585
444,3463528.695047563
446,3730384.2139633456
448,3992531.770802221
450,4246376.627420009
452,4492852.192490785
454,4737043.043210133
456,4983509.006741957
458,5227124.976846985
460,5456692.842557426
462,5659860.242286155
464,5820402.688472592
466,5929831.788796955
468,5995213.416849103
470,6028647.541545274
472,6039947.6747776065
474,6041536.067543207
476,6041214.875735323
478,6041440.653550265
480,6041498.336049324
482,6040896.776692134
484,6041938.845663327
486,6040938.371136645
488,6041868.604453074
490,6041413.536423261
492,6041482.685481332
494,6041972.194047712
496,6041366.4156027185
498,6041596.983737762
500,6041505.440825355
502,6041218.951089944
504,6041706.072894303
506,6041282.177738749
508,6041425.237787951
510,6041286.531414625
512,6041582.120268524
514,6041287.366449105
516,6041639.626632305
518,6041120.967284809
520,6041135.760857085
522,6041419.17778505
524,6041643.081688776
526,6041275.67639745
528,6040862.24989748
530,6041467.9099410325
532,6041531.327333263
534,6041548.700635756
536,6040860.514313777
538,6041823.459098567
540,6041602.929677593
542,6041369.18042378
544,6041456.24484919
546,6040900.828869545
548,6040975.875274042
550,6041497.247252334
552,6041152.5126909735
554,6041246.477912794
556,6041340.407203297
558,6041708.847606397
560,6041529.386155672
562,6041265.300916061
564,6041223.290473043
566,6041077.4234554395
568,6041339.633086205
570,6041451.671692353
572,6041813.628235033
574,6041707.541425141
576,6041568.780426204
578,6041528.598779367
580,6041527.825908684
582,6041688.436141507
584,6041788.402808862
586,6041470.4560906915
588,6041205.925251064
590,6041316.512215699
592,6041114.619002658
594,6041172.750061792
596,6041575.333440987
598,6041348.829120609
600,6041348.398407373
602,6041559.400804654
604,6041487.353427126
606,6041433.626113486
608,6041803.316509885
610,6041192.836006621
612,6041001.872717579
614,6041452.258965057
616,6041469.668663235
618,6041513.22670343
620,6041556.328004992
622,6040986.942813176
624,6040129.133308516
626,6041677.66032404
628,6042656.09477669
630,6041087.247906151
632,6040081.0945224
634,6040556.850658493
636,6041712.91747914
638,6042277.361638453
640,6042470.612982617
642,6042557.549956143
644,6042642.891982115
646,6042919.614591636
648,6042618.6092565665
650,6041140.706318449
652,6040644.2758103805
654,6041289.414329331
656,6041409.901606864
658,6041283.497670457
660,6041248.647523334
662,6041025.220756088
664,6040260.2583848825
666,6039548.054858638
668,6041412.538120164
670,6043718.144108054
672,6041979.407292823
674,6041172.191741591
676,6041536.895236377
678,6041346.297456404
680,6041150.293345946
682,6041410.314971342
684,6041560.064698217
686,6041447.918786621
688,6040955.8189397175
690,6041315.875338955
692,6041350.307975556
694,6041850.281893436
696,6041497.367671758
698,6041199.302168769
700,6041453.64627868
702,6041828.693192877
704,6040860.42770877
706,6041675.622792104
708,6041571.681644926
710,6041346.454989626
712,6041546.234560798
714,6041858.824615336
716,6041142.5820534965
718,6041286.403162461
720,6041703.1207177285
722,6041807.585318082
724,6041329.8607438
726,6041296.890614847
728,6041527.288726995
730,6041723.792105585
732,6041192.330811199
734,6041150.1016538385
736,6041704.398114255
738,6041255.137810724
740,6041344.973276121
742,6041402.044472554
744,6041509.896928869
746,6041611.23472158
748,6041281.529689905
750,6041392.455248062
752,6040981.1977447625
754,6041295.389267499
756,6041239.4416478425
758,6041271.659960353
760,6041533.037164191
762,6033170.558480699
764,5997309.196911797
766,5919816.184365741
768,5789128.623488824
770,5591227.92157777
772,5331562.926099856
774,5030824.995786329
776,4699258.250554136
778,4346757.545140255
780,3987299.429810042
782,3631624.3336451664
784,3286378.269654552
786,2964560.482130975
788,2677357.907088312
790,2431812.978824052
792,2227005.630354121
794,2056991.6675400746
796,1912122.286436368
798,1783069.2196949078
800,1663500.214270693
802,1548744.6415391257
804,1440089.3704584274
806,1338355.7413583586
808,1246002.4351940232
810,1164641.9993123675
812,1094313.8934356393
814,1033315.1507154639
816,979276.3012057306
818,928884.3489745458
820,880151.1850921786
822,831067.2044299131
824,781134.7456778135
826,731197.4373941015
828,682133.9307999852
830,635157.065687494
832,590767.9318637582
834,549817.9262336656
836,511926.9827578021
838,476508.58827418834
840,442988.8091633684
842,410512.7161371145
844,378885.83903410326
846,347759.8550145639
848,317145.038704723
850,286997.5341464601
852,257814.11993689087
854,229635.74166079867
856,202883.51438950063
858,177548.2583061767
860,153963.78261275878
862,132580.8515415665
864,113288.53811543316
866,96239.40874515912
868,81413.00428997858
870,68826.20859127876
872,58133.754868965356
874,49160.33286656182
876,41666.7751322839
878,35497.06635140222
880,30295.018445045593
882,25695.68578759554
884,21591.37521759164
886,17852.922836174053
888,14389.809163301048
890,11160.697668091325
892,8122.388938503005
894,5540.658797514908
896,3560.8201047046186
898,2067.8082667675035
900,1036.1379326991748
902,389.7262820249188
904,91.05201843704549
906,33.85408597934234
908,10.175341117526877
910,0.4798427012002451
912,-3.482973111878331
914,2.393407046365594
916,-5.54246237681494
918,-0.29287613119402345
920,-2.3379566926154904
922,4.289920058427215
924,0.9442159283387628
926,-2.7336637591896857
928,1.0006701908683229
930,-1.3057717257606596
932,1.5404292547943992
934,4.001179039549514
936,-1.414773894536123
938,3.248233771030033
940,0.4896997775772239
942,3.269850699677664
944,0.8757233738836303
946,1.835094323646329
948,-1.5911823412967454
950,0.22756291881490442
952,1.4645588048001232
954,3.043621082643513
956,0.027056986644400358
958,-0.10659459427895207
960,-0.7023202398106899
962,-2.0064684457895754
964,-3.0020412361544704
966,-2.2327748367148637
968,-2.2451702637504916
970,3.087313082970052
972,-1.474238603491238
974,-1.3750943045639343
976,0.09099228775895851
978,-4.359327552662422
980,0.17173412192045567
982,0.5883557203648353
984,-0.6237451035931326
986,0.24693956783995888
988,-1.1733774690472267
990,1.089032408027303
992,0.5823660453244227
994,0.22070109661222787
996,-2.4283186811864717
998,-1.410528741235163
1000,-1.602076920989911
1002,-0.0723170684905614
1004,-2.2803875418149437
1006,-0.15982876153475076
1008,-1.1915084778267833
1010,-1.9937058314243845
1012,1.598653035792643
1014,-0.6487785841223528
1016,2.324849570691117
1018,0.7091701747258704
