wave,flux
336,1450.9562266445491
338,1920.1493049203316
340,2556.632288172142
342,3518.987877708601
344,5014.516566209148
346,6951.940047423843
348,9082.830083458639
350,11754.948439066458
352,15060.64368410746
354,18807.77123368523
356,23117.62765465783
358,28004.335447750767
360,33470.924117656796
362,39979.6762319319
364,47872.879878515
366,57398.897180178246
368,69537.86294769373
370,86252.96622256206
372,112129.59784696934
374,154885.26794586136
376,219138.26025651948
378,298832.7842902492
380,377795.8980003274
382,443132.0772302414
384,493370.24115873745
386,536077.5196537856
388,580068.2133041761
390,635713.6925922995
392,715090.1413520041
394,830141.7868986327
396,987304.5388958093
398,1183753.4300042572
400,1406039.3685060136
402,1632130.9792958575
404,1840836.7724317969
406,2028112.2926787036
408,2208020.0690739215
410,2399836.3219353813
412,2611065.180245685
414,2833383.1522220504
416,3058437.942555534
418,3291689.0864507193
420,3549067.930510998
422,3844948.3812496783
424,4178294.0678939014
426,4539307.775225401
428,4911789.131768137
430,5264505.042918824
432,5568428.354096712
434,5798389.823343292
436,5940247.958357493
438,6012027.34757492
440,6037965.253775924
442,6041289.550175419
444,6041373.339860499
446,6041794.8823649995
448,6041470.67261198
450,6041325.949464507
452,6041742.253040902
454,6040904.080973585
456,6041448.623410591
458,6041188.3067021705
460,6041232.665432412
462,6041362.039364987
464,6041762.34052596
466,6041013.294315526
468,6041626.041701945
470,6041225.654036133
472,6041500.9417807115
474,6041381.444634485
476,6041566.192635132
478,6041214.194965284
480,6041178.71428066
482,6041130.66229429
484,6041606.773174669
486,6041816.044657583
488,6041202.230762131
490,6041248.928427066
492,6041101.897747157
494,6041693.421857359
496,6041556.805128057
498,6041729.148451798
500,6041360.460137483
502,6041556.460405769
504,6041704.12660781
506,6041643.239236432
508,6041180.469682345
510,6041139.866861828
512,6041182.183058737
514,6041759.614247541
516,6041199.808194932
518,6041511.016717429
520,6041649.890047499
522,6041211.489821491
524,6041213.815198342
526,6041369.117509977
528,6040973.491498053
530,6041311.9447072
532,6041270.738301304
534,6041245.239633749
536,6041250.740539796
538,6041019.283102982
540,6040955.364949728
542,6041325.484162301
544,6041254.344579322
546,6041691.689832016
548,6041901.316576144
550,6041392.901753499
552,6041214.4110496715
554,6041562.350313414
556,6041666.647333229
558,6041572.691459331
560,6041953.487110065
562,6041514.470339947
564,6041251.243745123
566,6041461.636720826
568,6041190.43992167
570,6041602.424442616
572,6041630.779135608
574,6041316.087838674
576,6041203.841145247
578,6041203.946931758
580,6041325.611772713
582,6041514.715414604
584,6041366.918328586
586,6041093.739782631
588,6041580.859490812
590,6041576.778614698
592,6041446.960105591
594,6041508.222333473
596,6041372.018027217
598,6041092.786607483
600,6041462.752997205
602,6041789.7222978
604,6041732.505446612
606,6041579.310621407
608,6041571.228291653
610,6041479.755615631
612,6041509.397478865
614,6041324.049296833
616,6040776.813477445
618,6041104.113062854
620,6041697.008175862
622,6041441.081330302
624,6040428.300343428
626,6040820.495692059
628,6041566.856790415
630,6041350.6451635305
632,6040826.057467185
634,6040256.779355602
636,6039747.619081152
638,6039403.368469372
640,6039328.8193458095
642,6039628.763536002
644,6040407.992865492
646,6041693.458241068
648,6041643.745105486
650,6041401.219101014
652,6041705.7770870235
654,6041397.689689022
656,6041151.216791212
658,6041511.431214411
660,6041551.262288403
662,6041377.486709215
664,6041484.487439378
666,6041443.750089349
668,6041107.991048771
670,6041563.760999665
672,6041267.2062764475
674,6041163.483843256
676,6041536.128915831
678,6041346.24345349
680,6041150.289956291
682,6041410.314774397
684,6041560.064687422
686,6041447.9187860545
688,6040955.81893969
690,6041315.875338955
692,6041350.307975556
694,6041850.281893436
696,6041497.367671758
698,6041199.302168769
700,6041453.64627868
702,6041828.693192877
704,6040860.42770877
706,6041675.622792104
708,6041571.681644926
710,6041346.454989626
712,6041546.234560798
714,6041858.824615336
716,6041142.5820534965
718,6041286.403162461
720,6041703.1207177285
722,6041807.585318082
724,6041329.8607438
726,6041296.890614847
728,6041527.288726995
730,6041723.792105585
732,6041192.330811199
734,6041150.1016538385
736,6041704.398114255
738,6041255.137810724
740,6041344.973276121
742,6041402.044472554
744,6041509.896928869
746,6041611.23472158
748,6041281.529689905
750,6041392.455248062
752,6040981.1977447625
754,6041295.389267499
756,6041239.4416478425
758,6041271.659960353
760,6041533.037164191
762,6033170.558480699
764,5997309.196911797
766,5919816.184365741
768,5789128.623488824
770,5591227.92157777
772,5331562.926099856
774,5030824.995786329
776,4699258.250554136
778,4346757.545140255
780,3987299.429810042
782,3631624.3336451664
784,3286378.269654552
786,2964560.482130975
788,2677357.907088312
790,2431812.978824052
792,2227005.630354121
794,2056991.6675400746
796,1912122.286436368
798,1783069.2196949078
800,1663500.214270693
802,1548744.6415391257
804,1440089.3704584274
806,1338355.7413583586
808,1246002.4351940232
810,1164641.9993123675
812,1094313.8934356393
814,1033315.1507154639
816,979276.3012057306
818,928884.3489745458
820,880151.1850921786
822,831067.2044299131
824,781134.7456778135
826,731197.4373941015
828,682133.9307999852
830,635157.065687494
832,590767.9318637582
834,549817.9262336656
836,511926.9827578021
838,476508.58827418834
840,442988.8091633684
842,410512.7161371145
844,378885.83903410326
846,347759.8550145639
848,317145.038704723
850,286997.5341464601
852,257814.11993689087
854,229635.74166079867
856,202883.51438950063
858,177548.2583061767
860,153963.78261275878
862,132580.8515415665
864,113288.53811543316
866,96239.40874515912
868,81413.00428997858
870,68826.20859127876
872,58133.754868965356
874,49160.33286656182
876,41666.7751322839
878,35497.06635140222
880,30295.018445045593
882,25695.68578759554
884,21591.37521759164
886,17852.922836174053
888,14389.809163301048
890,11160.697668091325
892,8122.388938503005
894,5540.658797514908
896,3560.8201047046186
898,2067.8082667675035
900,1036.1379326991748
902,389.7262820249188
904,91.05201843704549
906,33.85408597934234
908,10.175341117526877
910,0.4798427012002451
912,-3.482973111878331
914,2.393407046365594
916,-5.54246237681494
918,-0.29287613119402345
920,-2.3379566926154904
922,4.289920058427215
924,0.9442159283387628
926,-2.7336637591896857
928,1.0006701908683229
930,-1.3057717257606596
932,1.5404292547943992
934,4.001179039549514
936,-1.414773894536123
938,3.248233771030033
940,0.4896997775772239
942,3.269850699677664
944,0.8757233738836303
946,1.835094323646329
948,-1.5911823412967454
950,0.22756291881490442
952,1.4645588048001232
954,3.043621082643513
956,0.027056986644400358
958,-0.10659459427895207
960,-0.7023202398106899
962,-2.0064684457895754
964,-3.0020412361544704
966,-2.2327748367148637
968,-2.2451702637504916
970,3.087313082970052
972,-1.474238603491238
974,-1.3750943045639343
976,0.09099228775895851
978,-4.359327552662422
980,0.17173412192045567
982,0.5883557203648353
984,-0.6237451035931326
986,0.24693956783995888
988,-1.1733774690472267
990,1.089032408027303
992,0.5823660453244227
994,0.22070109661222787
996,-2.4283186811864717
998,-1.410528741235163
1000,-1.602076920989911
1002,-0.0723170684905614
1004,-2.2803875418149437
1006,-0.15982876153475076
1008,-1.1915084778267833
1010,-1.9937058314243845
1012,1.598653035792643
1014,-0.6487785841223528
1016,2.324849570691117
1018,0.7091701747258704
