wave,flux
336,7857.308126021244
338,12097.318791280695
340,17724.262326528766
342,24693.603433214455
344,32274.505069741324
346,40596.793697411806
348,49988.96111330924
350,60790.994669105996
352,73810.09961104758
354,89469.95322374535
356,107567.86808019613
358,127782.54981978594
360,149790.1977076305
362,172627.5442773997
364,195692.24556302506
366,220965.00296011913
368,251509.08345580465
370,292251.4151039331
372,353431.3665877092
374,457888.42694433924
376,640834.964792877
378,936550.7318675008
380,1356099.5855648464
382,1875618.634769649
384,2448190.449981711
386,3026836.262555541
388,3589712.5596458567
390,4145595.4284473257
392,4710385.71782933
394,5244533.084410656
396,5669687.709402132
398,5919810.677028077
400,6020904.604031422
402,6041445.169152109
404,6041597.44952558
406,6041152.352783288
408,6041273.936987694
410,6041947.641350351
412,6040976.752366505
414,6041440.215868332
416,6041241.899245632
418,6041288.088575646
420,6041376.165822298
422,6041522.645280962
424,6041666.559828527
426,6041381.4856660105
428,6041559.557386582
430,6041304.316427914
432,6041471.374197762
434,6041249.78651959
436,6041521.862311601
438,6041422.046317859
440,6041521.120466336
442,6041578.168211167
444,6041778.296418278
446,6041485.19141816
448,6041533.119800599
450,6040973.029931392
452,6040957.628054765
454,6041233.7736118045
456,6041103.089276104
458,6041449.327333118
460,6041588.891763143
462,6040553.755241886
464,6041484.977124367
466,6041508.4640860325
468,6041518.765620786
470,6041360.241161163
472,6041277.506827834
474,6041931.843886912
476,6041459.386678975
478,6041513.506395502
480,6041177.657368236
482,6041085.649796091
484,6041273.574283209
486,6041424.742157966
488,6041572.463935055
490,6041091.560410637
492,6041779.423264717
494,6041615.973839425
496,6041358.363579884
498,6042005.972022651
500,6041438.607562829
502,6041538.1149997255
504,6041462.492831638
506,6041177.789137697
508,6041642.433743443
510,6041693.90115601
512,6041335.748585279
514,6041484.705830438
516,6042163.836770824
518,6041173.979089542
520,6041459.7885757275
522,6041383.597105782
524,6041341.110323019
526,6041570.925500589
528,6041259.249053004
530,6041390.394365291
532,6041374.1517908
534,6041009.083195344
536,6041314.616231298
538,6041295.184476429
540,6041323.5040467065
542,6041360.306588068
544,6041517.688929164
546,6041096.123485936
548,6041448.450047821
550,6041697.090716166
552,6041411.241766597
554,6041683.181919329
556,6041609.657704537
558,6041280.244705515
560,6041577.719283948
562,6041374.655184476
564,6041411.5349636255
566,6041644.347146175
568,6041673.530821764
570,6041027.245299736
572,6041541.657877106
574,6041796.651172914
576,6041374.25787229
578,6040928.724182287
580,6041199.417947027
582,6041319.840724626
584,6040914.019679882
586,6041392.542908248
588,6041847.788942279
590,6041138.474750882
592,6041199.445410266
594,6041457.012240347
596,6041087.409806883
598,6041248.520850908
600,6041326.669661855
602,6041529.036706986
604,6041353.724894221
606,6041047.605607836
608,6041517.458687364
610,6041604.127960236
612,6041383.789296766
614,6041240.739383056
616,6041437.744276497
618,6042138.009365555
620,6041502.641328023
622,6040613.854315847
624,6041608.504372667
626,6041409.855030042
628,6040925.483744906
630,6041426.704891383
632,6041687.49738917
634,6041852.010891919
636,6042163.606747219
638,6042515.149075726
640,6042785.338781433
642,6042852.876768339
644,6042596.463940438
646,6041894.801201727
648,6041643.125657638
650,6041400.863933689
652,6041705.760981444
654,6041397.689682383
656,6041151.2168259425
658,6041511.431216647
660,6041551.262288466
662,6041377.486709215
664,6041484.487439378
666,6041443.750089349
668,6041107.991048771
670,6041563.760999665
672,6041267.2062764475
674,6041163.483843256
676,6041536.128915831
678,6041346.24345349
680,6041150.289956291
682,6041410.314774397
684,6041560.064687422
686,6041447.9187860545
688,6040955.81893969
690,6041315.875338955
692,6041350.307975556
694,6041850.281893436
696,6041497.367671758
698,6041199.302168769
700,6041453.64627868
702,6041828.693192877
704,6040860.42770877
706,6041675.622792104
708,6041571.681644926
710,6041346.454989626
712,6041546.234560798
714,6041858.824615336
716,6041142.5820534965
718,6041286.403162461
720,6041703.1207177285
722,6041807.585318082
724,6041329.8607438
726,6041296.890614847
728,6041527.288726995
730,6041723.792105585
732,6041192.330811199
734,6041150.1016538385
736,6041704.398114255
738,6041255.137810724
740,6041344.973276121
742,6041402.044472554
744,6041509.896928869
746,6041611.23472158
748,6041281.529689905
750,6041392.455248062
752,6040981.1977447625
754,6041295.389267499
756,6041239.4416478425
758,6041271.659960353
760,6041533.037164191
762,6033170.558480699
764,5997309.196911797
766,5919816.184365741
768,5789128.623488824
770,5591227.92157777
772,5331562.926099856
774,5030824.995786329
776,4699258.250554136
778,4346757.545140255
780,3987299.429810042
782,3631624.3336451664
784,3286378.269654552
786,2964560.482130975
788,2677357.907088312
790,2431812.978824052
792,2227005.630354121
794,2056991.6675400746
796,1912122.286436368
798,1783069.2196949078
800,1663500.214270693
802,1548744.6415391257
804,1440089.3704584274
806,1338355.7413583586
808,1246002.4351940232
810,1164641.9993123675
812,1094313.8934356393
814,1033315.1507154639
816,979276.3012057306
818,928884.3489745458
820,880151.1850921786
822,831067.2044299131
824,781134.7456778135
826,731197.4373941015
828,682133.9307999852
830,635157.065687494
832,590767.9318637582
834,549817.9262336656
836,511926.9827578021
838,476508.58827418834
840,442988.8091633684
842,410512.7161371145
844,378885.83903410326
846,347759.8550145639
848,317145.038704723
850,286997.5341464601
852,257814.11993689087
854,229635.74166079867
856,202883.51438950063
858,177548.2583061767
860,153963.78261275878
862,132580.8515415665
864,113288.53811543316
866,96239.40874515912
868,81413.00428997858
870,68826.20859127876
872,58133.754868965356
874,49160.33286656182
876,41666.7751322839
878,35497.06635140222
880,30295.018445045593
882,25695.68578759554
884,21591.37521759164
886,17852.922836174053
888,14389.809163301048
890,11160.697668091325
892,8122.388938503005
894,5540.658797514908
896,3560.8201047046186
898,2067.8082667675035
900,1036.1379326991748
902,389.7262820249188
904,91.05201843704549
906,33.85408597934234
908,10.175341117526877
910,0.4798427012002451
912,-3.482973111878331
914,2.393407046365594
916,-5.54246237681494
918,-0.29287613119402345
920,-2.3379566926154904
922,4.289920058427215
924,0.9442159283387628
926,-2.7336637591896857
928,1.0006701908683229
930,-1.3057717257606596
932,1.5404292547943992
934,4.001179039549514
936,-1.414773894536123
938,3.248233771030033
940,0.4896997775772239
942,3.269850699677664
944,0.8757233738836303
946,1.835094323646329
948,-1.5911823412967454
950,0.22756291881490442
952,1.4645588048001232
954,3.043621082643513
956,0.027056986644400358
958,-0.10659459427895207
960,-0.7023202398106899
962,-2.0064684457895754
964,-3.0020412361544704
966,-2.2327748367148637
968,-2.2451702637504916
970,3.087313082970052
972,-1.474238603491238
974,-1.3750943045639343
976,0.09099228775895851
978,-4.359327552662422
980,0.17173412192045567
982,0.5883557203648353
984,-0.6237451035931326
986,0.24693956783995888
988,-1.1733774690472267
990,1.089032408027303
992,0.5823660453244227
994,0.22070109661222787
996,-2.4283186811864717
998,-1.410528741235163
1000,-1.602076920989911
1002,-0.0723170684905614
1004,-2.2803875418149437
1006,-0.15982876153475076
1008,-1.1915084778267833
1010,-1.9937058314243845
1012,1.598653035792643
1014,-0.6487785841223528
1016,2.324849570691117
1018,0.7091701747258704
