wave,flux
336,57928.10300144039
338,76463.69478010124
340,98871.79851337714
342,122955.72189664292
344,146325.08188803666
346,169101.99822951012
348,191984.0008121982
350,214748.88997481018
352,238214.20980098026
354,262181.418197039
356,285849.7476172414
358,311524.06646370253
360,340644.0231998032
362,369896.6508544072
364,392707.3664409965
366,405707.83419680345
368,412852.9444540359
370,421954.44685048296
372,439243.56340946053
374,467323.442661774
376,505939.4096339687
378,553502.4817823789
380,609461.826065675
382,676833.9504822056
384,761145.2461082445
386,865100.7083777728
388,986813.7454390746
390,1122458.9487408092
392,1270376.453943435
394,1428825.1748895869
396,1596107.2076899651
398,1770355.188730863
400,1951153.6662625743
402,2138255.5979472212
404,2331001.3094683415
406,2527925.0071048816
408,2727652.4130560257
410,2927692.0898861177
412,3124073.32484183
414,3312405.953865293
416,3493542.253777885
418,3675756.9207188617
420,3871315.07516971
422,4095244.0431701755
424,4353583.079228634
426,4642686.054932333
428,4945840.018448368
430,5239451.90366894
432,5501203.79067032
434,5711667.904651054
436,5864239.565818342
438,5960635.715537156
440,6011507.616958405
442,6034513.169700198
444,6040617.269212825
446,6041540.238890654
448,6041521.260045892
450,6041447.3238136
452,6041438.6129423585
454,6041267.891587773
456,6041650.937048228
458,6041105.594555351
460,6041454.609891563
462,6041554.644863843
464,6041702.605515925
466,6041443.423738613
468,6041372.728282188
470,6041626.077009892
472,6041486.907366783
474,6041331.387386176
476,6041998.5295252865
478,6041280.238753237
480,6041254.194283506
482,6041368.358164945
484,6041548.232748261
486,6041698.740777845
488,6041504.2854206655
490,6041521.383371447
492,6040969.211173204
494,6041658.747667244
496,6041089.579879454
498,6041457.229348348
500,6041447.659757635
502,6041459.492082159
504,6041536.183552778
506,6041483.411189369
508,6041708.487072528
510,6041625.339909636
512,6041668.483250447
514,6041472.865831456
516,6041085.580673786
518,6041671.152897253
520,6041227.37927394
522,6041010.987391443
524,6041445.943135413
526,6041343.978442093
528,6041240.504856145
530,6041250.887078989
532,6041482.5496657835
534,6041465.557900782
536,6041463.398089159
538,6041026.587243789
540,6041435.916472882
542,6041218.076076716
544,6041344.1550342925
546,6041382.240891077
548,6041281.51993362
550,6041530.658710712
552,6041807.605834904
554,6041349.519091928
556,6041408.174867074
558,6041541.972761538
560,6041155.326992707
562,6041183.285501085
564,6041621.304454213
566,6041576.633901592
568,6041100.989221146
570,6041483.915483908
572,6041425.437977089
574,6041294.996244461
576,6041491.9629811905
578,6041377.678939029
580,6041465.4694970995
582,6041792.559159764
584,6041578.811350706
586,6041263.127311322
588,6041430.681669362
590,6041271.353902655
592,6041344.963809522
594,6041526.822316609
596,6041509.022824893
598,6041515.024472005
600,6041167.00402793
602,6041375.711469844
604,6041849.066062924
606,6041837.590089822
608,6041445.881599641
610,6041359.395058757
612,6041562.668537359
614,6041453.321562261
616,6040899.683732478
618,6041040.974026613
620,6041828.492618469
622,6041829.823721745
624,6040429.454208667
626,6040645.101218882
628,6041970.545162315
630,6042663.624505876
632,6042329.729362977
634,6041773.238264613
636,6041406.57330497
638,6041164.1905312
640,6041579.944984155
642,6041872.560140303
644,6041256.542077808
646,6041988.626748728
648,6043267.884821832
650,6042668.698385393
652,6041335.567551497
654,6040624.667402129
656,6041045.940856912
658,6041468.6593081765
660,6041339.032485495
662,6041404.581016812
664,6041489.741410324
666,6041444.115498008
668,6041108.007980095
670,6041563.761425281
672,6041267.206264543
674,6041163.4838408455
676,6041536.12891562
678,6041346.243453474
680,6041150.28995629
682,6041410.314774397
684,6041560.064687422
686,6041447.9187860545
688,6040955.81893969
690,6041315.875338955
692,6041350.307975556
694,6041850.281893436
696,6041497.367671758
698,6041199.302168769
700,6041453.64627868
702,6041828.693192877
704,6040860.42770877
706,6041675.622792104
708,6041571.681644926
710,6041346.454989626
712,6041546.234560798
714,6041858.824615336
716,6041142.5820534965
718,6041286.403162461
720,6041703.1207177285
722,6041807.585318082
724,6041329.8607438
726,6041296.890614847
728,6041527.288726995
730,6041723.792105585
732,6041192.330811199
734,6041150.1016538385
736,6041704.398114255
738,6041255.137810724
740,6041344.973276121
742,6041402.044472554
744,6041509.896928869
746,6041611.23472158
748,6041281.529689905
750,6041392.455248062
752,6040981.1977447625
754,6041295.389267499
756,6041239.4416478425
758,6041271.659960353
760,6041533.037164191
762,6033170.558480699
764,5997309.196911797
766,5919816.184365741
768,5789128.623488824
770,5591227.92157777
772,5331562.926099856
774,5030824.995786329
776,4699258.250554136
778,4346757.545140255
780,3987299.429810042
782,3631624.3336451664
784,3286378.269654552
786,2964560.482130975
788,2677357.907088312
790,2431812.978824052
792,2227005.630354121
794,2056991.6675400746
796,1912122.286436368
798,1783069.2196949078
800,1663500.214270693
802,1548744.6415391257
804,1440089.3704584274
806,1338355.7413583586
808,1246002.4351940232
810,1164641.9993123675
812,1094313.8934356393
814,1033315.1507154639
816,979276.3012057306
818,928884.3489745458
820,880151.1850921786
822,831067.2044299131
824,781134.7456778135
826,731197.4373941015
828,682133.9307999852
830,635157.065687494
832,590767.9318637582
834,549817.9262336656
836,511926.9827578021
838,476508.58827418834
840,442988.8091633684
842,410512.7161371145
844,378885.83903410326
846,347759.8550145639
848,317145.038704723
850,286997.5341464601
852,257814.11993689087
854,229635.74166079867
856,202883.51438950063
858,177548.2583061767
860,153963.78261275878
862,132580.8515415665
864,113288.53811543316
866,96239.40874515912
868,81413.00428997858
870,68826.20859127876
872,58133.754868965356
874,49160.33286656182
876,41666.7751322839
878,35497.06635140222
880,30295.018445045593
882,25695.68578759554
884,21591.37521759164
886,17852.922836174053
888,14389.809163301048
890,11160.697668091325
892,8122.388938503005
894,5540.658797514908
896,3560.8201047046186
898,2067.8082667675035
900,1036.1379326991748
902,389.7262820249188
904,91.05201843704549
906,33.85408597934234
908,10.175341117526877
910,0.4798427012002451
912,-3.482973111878331
914,2.393407046365594
916,-5.54246237681494
918,-0.29287613119402345
920,-2.3379566926154904
922,4.289920058427215
924,0.9442159283387628
926,-2.7336637591896857
928,1.0006701908683229
930,-1.3057717257606596
932,1.5404292547943992
934,4.001179039549514
936,-1.414773894536123
938,3.248233771030033
940,0.4896997775772239
942,3.269850699677664
944,0.8757233738836303
946,1.835094323646329
948,-1.5911823412967454
950,0.22756291881490442
952,1.4645588048001232
954,3.043621082643513
956,0.027056986644400358
958,-0.10659459427895207
960,-0.7023202398106899
962,-2.0064684457895754
964,-3.0020412361544704
966,-2.2327748367148637
968,-2.2451702637504916
970,3.087313082970052
972,-1.474238603491238
974,-1.3750943045639343
976,0.09099228775895851
978,-4.359327552662422
980,0.17173412192045567
982,0.5883557203648353
984,-0.6237451035931326
986,0.24693956783995888
988,-1.1733774690472267
990,1.089032408027303
992,0.5823660453244227
994,0.22070109661222787
996,-2.4283186811864717
998,-1.410528741235163
1000,-1.602076920989911
1002,-0.0723170684905614
1004,-2.2803875418149437
1006,-0.15982876153475076
1008,-1.1915084778267833
1010,-1.9937058314243845
1012,1.598653035792643
1014,-0.6487785841223528
1016,2.324849570691117
1018,0.7091701747258704
