wave,flux
336,0.9945403462443048
338,0.6842982974924026
340,1.0262017791290357
342,0.38358653282106203
344,1.9137978578491295
346,0.14996186481478774
348,0.5646151717185851
350,-2.1304742351535557
352,-0.06649885383999632
354,3.669303402449454
356,12.692280737273098
358,597.990776323054
360,3003.0862762038596
362,7708.604686490633
364,13744.100394584051
366,20458.556984980787
368,27990.143801443526
370,36644.541571843896
372,46409.96110525505
374,56849.64754072569
376,68025.64204623371
378,80266.90724232417
380,94014.77996203124
382,109684.27718581435
384,128154.97534760462
386,149349.73155971925
388,172445.36389375097
390,196836.5014785022
392,223323.85447989785
394,251703.97478081405
396,280497.62089848734
398,307741.2728442474
400,333839.9254430849
402,359908.52448489866
404,387512.1388026999
406,417892.82774615195
408,453859.7185956694
410,498160.5659727523
412,552596.0765346832
414,618736.6025593114
416,703409.111818914
418,825010.574154144
420,1021654.5125525002
422,1348821.6950187595
424,1867399.2261868855
426,2609863.7744520875
428,3501594.3478006735
430,4405797.3963754615
432,5166980.297904498
434,5665507.794659855
436,5928688.074070969
438,6027513.410891406
440,6041552.408924704
442,6041668.240110742
444,6041433.270452192
446,6041427.169501198
448,6041261.698971923
450,6041739.984599193
452,6041513.878370571
454,6041472.326462724
456,6040979.861400524
458,6042019.600287499
460,6041231.706664348
462,6041428.127115215
464,6041560.673304394
466,6041694.839863129
468,6041664.5993165355
470,6041397.023328007
472,6041129.9501901725
474,6041449.830067437
476,6041638.68630574
478,6041139.643220361
480,6041293.605232409
482,6041113.497302919
484,6041205.299948256
486,6041382.609792
488,6041084.031891885
490,6041407.459708523
492,6040835.277155848
494,6040646.175086124
496,6041778.837167573
498,6041208.913048738
500,6041563.870227043
502,6041369.117118174
504,6041110.339331056
506,6041457.189983113
508,6041357.902727952
510,6041584.856616691
512,6041388.396977333
514,6041536.611901899
516,6041510.875736492
518,6041506.999545083
520,6041494.051457118
522,6041328.577872416
524,6041509.105275117
526,6041360.411744085
528,6041563.383371278
530,6041731.122735026
532,6041365.178761273
534,6041611.975775061
536,6041509.831692192
538,6041693.826195713
540,6041189.753229796
542,6041220.878533394
544,6041603.683273184
546,6041277.923906975
548,6041558.123348966
550,6041462.932724797
552,6041353.508071257
554,6041279.381821757
556,6041393.908577869
558,6041517.012677485
560,6041541.804345128
562,6041537.698540661
564,6041484.195725909
566,6041313.3088259185
568,6041432.473552072
570,6041370.316897057
572,6041131.631168292
574,6041405.129965967
576,6041295.951122424
578,6041463.501252065
580,6041471.027867279
582,6041292.410682968
584,6041532.727091407
586,6041493.676892256
588,6041390.319473355
590,6041711.876443524
592,6041655.267405318
594,6041472.080395446
596,6041584.889154386
598,6041503.871403486
600,6041328.091282444
602,6041405.487794845
604,6041463.823155158
606,6041400.871345433
608,6041453.173712705
610,6041199.3513325965
612,6040996.591233429
614,6041252.085991583
616,6041510.874576814
618,6040648.8694524225
620,6040621.351767892
622,6041889.814496099
624,6042821.261320264
626,6042788.467200362
628,6042433.713550807
630,6042148.934803045
632,6041385.190050939
634,6040395.96158928
636,6040402.799822095
638,6042098.142602277
640,6042403.961212883
642,6041200.392956365
644,6040762.41880901
646,6041687.114201509
648,6041643.768209659
650,6041401.232348048
652,6041705.77768773
654,6041397.689689269
656,6041151.216789917
658,6041511.431214327
660,6041551.2622884
662,6041377.486709217
664,6041484.487439378
666,6041443.750089349
668,6041107.991048771
670,6041563.760999665
672,6041267.2062764475
674,6041163.483843256
676,6041536.128915831
678,6041346.24345349
680,6041150.289956291
682,6041410.314774397
684,6041560.064687422
686,6041447.9187860545
688,6040955.81893969
690,6041315.875338955
692,6041350.307975556
694,6041850.281893436
696,6041497.367671758
698,6041199.302168769
700,6041453.64627868
702,6041828.693192877
704,6040860.42770877
706,6041675.622792104
708,6041571.681644926
710,6041346.454989626
712,6041546.234560798
714,6041858.824615336
716,6041142.5820534965
718,6041286.403162461
720,6041703.1207177285
722,6041807.585318082
724,6041329.8607438
726,6041296.890614847
728,6041527.288726995
730,6041723.792105585
732,6041192.330811199
734,6041150.1016538385
736,6041704.398114255
738,6041255.137810724
740,6041344.973276121
742,6041402.044472554
744,6041509.896928869
746,6041611.23472158
748,6041281.529689905
750,6041392.455248062
752,6040981.1977447625
754,6041295.389267499
756,6041239.4416478425
758,6041271.659960353
760,6041533.037164191
762,6033170.558480699
764,5997309.196911797
766,5919816.184365741
768,5789128.623488824
770,5591227.92157777
772,5331562.926099856
774,5030824.995786329
776,4699258.250554136
778,4346757.545140255
780,3987299.429810042
782,3631624.3336451664
784,3286378.269654552
786,2964560.482130975
788,2677357.907088312
790,2431812.978824052
792,2227005.630354121
794,2056991.6675400746
796,1912122.286436368
798,1783069.2196949078
800,1663500.214270693
802,1548744.6415391257
804,1440089.3704584274
806,1338355.7413583586
808,1246002.4351940232
810,1164641.9993123675
812,1094313.8934356393
814,1033315.1507154639
816,979276.3012057306
818,928884.3489745458
820,880151.1850921786
822,831067.2044299131
824,781134.7456778135
826,731197.4373941015
828,682133.9307999852
830,635157.065687494
832,590767.9318637582
834,549817.9262336656
836,511926.9827578021
838,476508.58827418834
840,442988.8091633684
842,410512.7161371145
844,378885.83903410326
846,347759.8550145639
848,317145.038704723
850,286997.5341464601
852,257814.11993689087
854,229635.74166079867
856,202883.51438950063
858,177548.2583061767
860,153963.78261275878
862,132580.8515415665
864,113288.53811543316
866,96239.40874515912
868,81413.00428997858
870,68826.20859127876
872,58133.754868965356
874,49160.33286656182
876,41666.7751322839
878,35497.06635140222
880,30295.018445045593
882,25695.68578759554
884,21591.37521759164
886,17852.922836174053
888,14389.809163301048
890,11160.697668091325
892,8122.388938503005
894,5540.658797514908
896,3560.8201047046186
898,2067.8082667675035
900,1036.1379326991748
902,389.7262820249188
904,91.05201843704549
906,33.85408597934234
908,10.175341117526877
910,0.4798427012002451
912,-3.482973111878331
914,2.393407046365594
916,-5.54246237681494
918,-0.29287613119402345
920,-2.3379566926154904
922,4.289920058427215
924,0.9442159283387628
926,-2.7336637591896857
928,1.0006701908683229
930,-1.3057717257606596
932,1.5404292547943992
934,4.001179039549514
936,-1.414773894536123
938,3.248233771030033
940,0.4896997775772239
942,3.269850699677664
944,0.8757233738836303
946,1.835094323646329
948,-1.5911823412967454
950,0.22756291881490442
952,1.4645588048001232
954,3.043621082643513
956,0.027056986644400358
958,-0.10659459427895207
960,-0.7023202398106899
962,-2.0064684457895754
964,-3.0020412361544704
966,-2.2327748367148637
968,-2.2451702637504916
970,3.087313082970052
972,-1.474238603491238
974,-1.3750943045639343
976,0.09099228775895851
978,-4.359327552662422
980,0.17173412192045567
982,0.5883557203648353
984,-0.6237451035931326
986,0.24693956783995888
988,-1.1733774690472267
990,1.089032408027303
992,0.5823660453244227
994,0.22070109661222787
996,-2.4283186811864717
998,-1.410528741235163
1000,-1.602076920989911
1002,-0.0723170684905614
1004,-2.2803875418149437
1006,-0.15982876153475076
1008,-1.1915084778267833
1010,-1.9937058314243845
1012,1.598653035792643
1014,-0.6487785841223528
1016,2.324849570691117
1018,0.7091701747258704
