wave,flux
336,1169.9146037431578
338,1703.676522939359
340,2303.3133443679963
342,3090.92219287403
344,4143.435508631325
346,5345.17686781784
348,6582.521583217885
350,7986.312447154177
352,9809.742419730088
354,12144.687168763692
356,14832.374745452322
358,17790.604167609323
360,21004.367746325966
362,24562.09182875527
364,28641.124460822117
366,33448.92703453925
368,39466.74411568185
370,47589.77564194338
372,59744.519643604835
374,80268.97061704901
376,115047.52016135264
378,167072.03230217125
380,232684.5271986567
382,304150.28780731483
384,374774.60025474906
386,441933.855526035
388,504133.4057937336
390,561178.9332758511
392,616364.0575753549
394,677200.9684764217
396,750407.2564864319
398,837390.8721182328
400,930153.7445784006
402,1014757.2432076862
404,1079531.4630547205
406,1123554.9596564989
408,1158402.4734836954
410,1202489.4931743443
412,1271912.9145221685
414,1371375.5610598517
416,1495061.77148676
418,1632133.874437602
420,1773983.951059364
422,1919212.1383468388
424,2071567.1819962633
426,2235356.4726716913
428,2411308.364688202
430,2597146.7696431833
432,2787681.5834548357
434,2980175.297556717
436,3173593.278097304
438,3369784.9513287283
440,3572417.8105650926
442,3782610.9000187768
444,3997480.8609118885
446,4210877.611150296
448,4416683.252792342
450,4614132.662339624
452,4809653.2184319245
454,5014768.028983958
456,5228486.347448707
458,5443609.531063846
460,5644752.529088364
462,5810713.149251566
464,5925375.992675738
466,5995505.656567777
468,6030571.1015620325
470,6040469.756914648
472,6040926.525084287
474,6041879.074502295
476,6041361.912380464
478,6041341.144602386
480,6041390.53955504
482,6041465.111943222
484,6041439.407410662
486,6041472.899320389
488,6041529.011042489
490,6041363.463120515
492,6041348.915609073
494,6041428.581505655
496,6041394.660772126
498,6041223.881131084
500,6041363.576697096
502,6041829.538110289
504,6041534.816162047
506,6041577.083652031
508,6041527.00291935
510,6041312.38767183
512,6041330.370731981
514,6041065.957882471
516,6041298.760550257
518,6041537.789152551
520,6041265.307244181
522,6041667.418067066
524,6041619.601418177
526,6041811.841365713
528,6041714.72735772
530,6041451.318630124
532,6041556.832951231
534,6041158.715248067
536,6041449.9071069835
538,6041429.522461292
540,6041519.956245885
542,6041293.540045229
544,6041117.030488513
546,6041607.0758632645
548,6041316.261902342
550,6041314.740161902
552,6041290.307742409
554,6041338.251595595
556,6041587.044618009
558,6041109.378890442
560,6040922.148716527
562,6041122.023206574
564,6041478.645847363
566,6041438.510827235
568,6041708.225708647
570,6041212.671740966
572,6041472.819452317
574,6041319.064089041
576,6041007.812356846
578,6041258.958226115
580,6041598.943574303
582,6041508.292886276
584,6041348.64401857
586,6041406.211431026
588,6041261.784855752
590,6041271.67815431
592,6041551.363228176
594,6041675.811367223
596,6041538.723802864
598,6041546.522364073
600,6041653.455491568
602,6041555.286837663
604,6041841.856285699
606,6042247.990055113
608,6041696.467660738
610,6041127.6591327125
612,6041092.8723574765
614,6041225.774249144
616,6041185.687817972
618,6041642.167424377
620,6042170.322122182
622,6042137.729738344
624,6041583.9746719
626,6041419.455752441
628,6040533.802646305
630,6039292.569577305
632,6040441.234306806
634,6041455.7238683
636,6041124.193329808
638,6040649.763064335
640,6039965.62782758
642,6039113.531080845
644,6039068.270005811
646,6041640.801955207
648,6041625.348688162
650,6041390.671310162
652,6041705.298782076
654,6041397.689491855
656,6041151.2178226635
658,6041511.431280853
660,6041551.262290313
662,6041377.486709177
664,6041484.487439371
666,6041443.750089349
668,6041107.991048771
670,6041563.760999665
672,6041267.2062764475
674,6041163.483843256
676,6041536.128915831
678,6041346.24345349
680,6041150.289956291
682,6041410.314774397
684,6041560.064687422
686,6041447.9187860545
688,6040955.81893969
690,6041315.875338955
692,6041350.307975556
694,6041850.281893436
696,6041497.367671758
698,6041199.302168769
700,6041453.64627868
702,6041828.693192877
704,6040860.42770877
706,6041675.622792104
708,6041571.681644926
710,6041346.454989626
712,6041546.234560798
714,6041858.824615336
716,6041142.5820534965
718,6041286.403162461
720,6041703.1207177285
722,6041807.585318082
724,6041329.8607438
726,6041296.890614847
728,6041527.288726995
730,6041723.792105585
732,6041192.330811199
734,6041150.1016538385
736,6041704.398114255
738,6041255.137810724
740,6041344.973276121
742,6041402.044472554
744,6041509.896928869
746,6041611.23472158
748,6041281.529689905
750,6041392.455248062
752,6040981.1977447625
754,6041295.389267499
756,6041239.4416478425
758,6041271.659960353
760,6041533.037164191
762,6033170.558480699
764,5997309.196911797
766,5919816.184365741
768,5789128.623488824
770,5591227.92157777
772,5331562.926099856
774,5030824.995786329
776,4699258.250554136
778,4346757.545140255
780,3987299.429810042
782,3631624.3336451664
784,3286378.269654552
786,2964560.482130975
788,2677357.907088312
790,2431812.978824052
792,2227005.630354121
794,2056991.6675400746
796,1912122.286436368
798,1783069.2196949078
800,1663500.214270693
802,1548744.6415391257
804,1440089.3704584274
806,1338355.7413583586
808,1246002.4351940232
810,1164641.9993123675
812,1094313.8934356393
814,1033315.1507154639
816,979276.3012057306
818,928884.3489745458
820,880151.1850921786
822,831067.2044299131
824,781134.7456778135
826,731197.4373941015
828,682133.9307999852
830,635157.065687494
832,590767.9318637582
834,549817.9262336656
836,511926.9827578021
838,476508.58827418834
840,442988.8091633684
842,410512.7161371145
844,378885.83903410326
846,347759.8550145639
848,317145.038704723
850,286997.5341464601
852,257814.11993689087
854,229635.74166079867
856,202883.51438950063
858,177548.2583061767
860,153963.78261275878
862,132580.8515415665
864,113288.53811543316
866,96239.40874515912
868,81413.00428997858
870,68826.20859127876
872,58133.754868965356
874,49160.33286656182
876,41666.7751322839
878,35497.06635140222
880,30295.018445045593
882,25695.68578759554
884,21591.37521759164
886,17852.922836174053
888,14389.809163301048
890,11160.697668091325
892,8122.388938503005
894,5540.658797514908
896,3560.8201047046186
898,2067.8082667675035
900,1036.1379326991748
902,389.7262820249188
904,91.05201843704549
906,33.85408597934234
908,10.175341117526877
910,0.4798427012002451
912,-3.482973111878331
914,2.393407046365594
916,-5.54246237681494
918,-0.29287613119402345
920,-2.3379566926154904
922,4.289920058427215
924,0.9442159283387628
926,-2.7336637591896857
928,1.0006701908683229
930,-1.3057717257606596
932,1.5404292547943992
934,4.001179039549514
936,-1.414773894536123
938,3.248233771030033
940,0.4896997775772239
942,3.269850699677664
944,0.8757233738836303
946,1.835094323646329
948,-1.5911823412967454
950,0.22756291881490442
952,1.4645588048001232
954,3.043621082643513
956,0.027056986644400358
958,-0.10659459427895207
960,-0.7023202398106899
962,-2.0064684457895754
964,-3.0020412361544704
966,-2.2327748367148637
968,-2.2451702637504916
970,3.087313082970052
972,-1.474238603491238
974,-1.3750943045639343
976,0.09099228775895851
978,-4.359327552662422
980,0.17173412192045567
982,0.5883557203648353
984,-0.6237451035931326
986,0.24693956783995888
988,-1.1733774690472267
990,1.089032408027303
992,0.5823660453244227
994,0.22070109661222787
996,-2.4283186811864717
998,-1.410528741235163
1000,-1.602076920989911
1002,-0.0723170684905614
1004,-2.2803875418149437
1006,-0.15982876153475076
1008,-1.1915084778267833
1010,-1.9937058314243845
1012,1.598653035792643
1014,-0.6487785841223528
1016,2.324849570691117
1018,0.7091701747258704
