wave,flux
336,1647.2104904223688
338,2469.4213326481336
340,3538.444790024055
342,4797.932168392468
344,6386.876889863941
346,8436.468502603304
348,11047.684457078418
350,14291.810724038196
352,18109.459793043756
354,22689.903641275378
356,28176.870129164374
358,34433.83565102589
360,41291.83686444076
362,48592.97730261611
364,56359.17235059503
366,65284.445399837496
368,76455.90343826164
370,91176.3880193348
372,112203.82156061401
374,145975.9150556269
376,200904.60409007274
378,281146.34063355526
380,380570.01641582785
382,487209.00541619415
384,593131.8881651458
386,698295.1269309381
388,806753.2485902762
390,922091.6532698511
392,1047663.1213794309
394,1182948.5043744377
396,1327461.0478661705
398,1482361.151909011
400,1653972.151121189
402,1848975.4011170848
404,2069924.3789179653
406,2313743.493371847
408,2573486.7481963322
410,2840674.052008716
412,3106937.2312711133
414,3368567.0119759156
416,3632254.9902999266
418,3911012.402696589
420,4213006.162476436
422,4534457.681560493
424,4859329.269037179
426,5167898.792275763
428,5440113.846595566
430,5662362.906759902
432,5827983.990547313
434,5938554.775299396
436,6000558.359035782
438,6030072.867752061
440,6039799.540583597
442,6041320.151063995
444,6041103.366635027
446,6041360.56614154
448,6041717.169922107
450,6041571.772318356
452,6041031.771503589
454,6041540.57078848
456,6041462.000401392
458,6041009.654383613
460,6041631.6734447535
462,6041398.355164134
464,6041203.172738229
466,6041476.163201682
468,6041699.248263325
470,6041523.5546765365
472,6041610.816843242
474,6041399.311165671
476,6041385.337531739
478,6041620.65946408
480,6041553.5365325045
482,6041067.252750136
484,6041061.694761956
486,6041642.090332246
488,6041642.352106412
490,6041160.925583061
492,6042065.436040212
494,6040920.98795926
496,6041516.798666305
498,6041315.307290101
500,6041380.093974258
502,6041557.430639194
504,6041404.356756539
506,6041427.751662403
508,6041433.159180473
510,6041737.598816789
512,6041479.266566655
514,6041460.708156159
516,6041298.422719482
518,6041735.192462662
520,6041408.731121289
522,6041071.830543929
524,6041256.513663642
526,6041133.59638956
528,6041304.0898093255
530,6041448.43941152
532,6041124.679880343
534,6041326.926263822
536,6041209.675923716
538,6041320.761764527
540,6041544.473584122
542,6041166.704113509
544,6041350.554339738
546,6041668.983386014
548,6041234.834853501
550,6040697.004307312
552,6040960.178853969
554,6041686.565097663
556,6041304.950828943
558,6041418.783462031
560,6041372.028332862
562,6041368.122826095
564,6041621.008353096
566,6041442.640810984
568,6041605.066821193
570,6041627.216769093
572,6041354.115157958
574,6040868.704122463
576,6041365.163105015
578,6041714.708115876
580,6041588.287806747
582,6041150.017088848
584,6040902.154573872
586,6041481.236067964
588,6041052.0040240185
590,6041163.08514301
592,6041438.112221614
594,6041107.083237915
596,6040846.107572255
598,6041431.561234192
600,6041734.701141595
602,6041712.25619197
604,6041579.160935749
606,6041480.1517636515
608,6041417.945434223
610,6041178.8882842995
612,6041449.326405696
614,6041893.2289921185
616,6041640.208430675
618,6041244.441014241
620,6041374.615872602
622,6041634.390544533
624,6041441.521378537
626,6041907.665282624
628,6042326.855649332
630,6041673.905995599
632,6040330.750450972
634,6040495.684282871
636,6042020.108640792
638,6042411.549514795
640,6040676.778101872
642,6038855.978127686
644,6039651.446659235
646,6041539.971501997
648,6042507.638445714
650,6041731.388914238
652,6041729.990798878
654,6041397.69967043
656,6041151.1645749975
658,6041511.427850807
660,6041551.262191695
662,6041377.486711232
664,6041484.487439768
666,6041443.750089375
668,6041107.991048774
670,6041563.760999665
672,6041267.2062764475
674,6041163.483843256
676,6041536.128915831
678,6041346.24345349
680,6041150.289956291
682,6041410.314774397
684,6041560.064687422
686,6041447.9187860545
688,6040955.81893969
690,6041315.875338955
692,6041350.307975556
694,6041850.281893436
696,6041497.367671758
698,6041199.302168769
700,6041453.64627868
702,6041828.693192877
704,6040860.42770877
706,6041675.622792104
708,6041571.681644926
710,6041346.454989626
712,6041546.234560798
714,6041858.824615336
716,6041142.5820534965
718,6041286.403162461
720,6041703.1207177285
722,6041807.585318082
724,6041329.8607438
726,6041296.890614847
728,6041527.288726995
730,6041723.792105585
732,6041192.330811199
734,6041150.1016538385
736,6041704.398114255
738,6041255.137810724
740,6041344.973276121
742,6041402.044472554
744,6041509.896928869
746,6041611.23472158
748,6041281.529689905
750,6041392.455248062
752,6040981.1977447625
754,6041295.389267499
756,6041239.4416478425
758,6041271.659960353
760,6041533.037164191
762,6033170.558480699
764,5997309.196911797
766,5919816.184365741
768,5789128.623488824
770,5591227.92157777
772,5331562.926099856
774,5030824.995786329
776,4699258.250554136
778,4346757.545140255
780,3987299.429810042
782,3631624.3336451664
784,3286378.269654552
786,2964560.482130975
788,2677357.907088312
790,2431812.978824052
792,2227005.630354121
794,2056991.6675400746
796,1912122.286436368
798,1783069.2196949078
800,1663500.214270693
802,1548744.6415391257
804,1440089.3704584274
806,1338355.7413583586
808,1246002.4351940232
810,1164641.9993123675
812,1094313.8934356393
814,1033315.1507154639
816,979276.3012057306
818,928884.3489745458
820,880151.1850921786
822,831067.2044299131
824,781134.7456778135
826,731197.4373941015
828,682133.9307999852
830,635157.065687494
832,590767.9318637582
834,549817.9262336656
836,511926.9827578021
838,476508.58827418834
840,442988.8091633684
842,410512.7161371145
844,378885.83903410326
846,347759.8550145639
848,317145.038704723
850,286997.5341464601
852,257814.11993689087
854,229635.74166079867
856,202883.51438950063
858,177548.2583061767
860,153963.78261275878
862,132580.8515415665
864,113288.53811543316
866,96239.40874515912
868,81413.00428997858
870,68826.20859127876
872,58133.754868965356
874,49160.33286656182
876,41666.7751322839
878,35497.06635140222
880,30295.018445045593
882,25695.68578759554
884,21591.37521759164
886,17852.922836174053
888,14389.809163301048
890,11160.697668091325
892,8122.388938503005
894,5540.658797514908
896,3560.8201047046186
898,2067.8082667675035
900,1036.1379326991748
902,389.7262820249188
904,91.05201843704549
906,33.85408597934234
908,10.175341117526877
910,0.4798427012002451
912,-3.482973111878331
914,2.393407046365594
916,-5.54246237681494
918,-0.29287613119402345
920,-2.3379566926154904
922,4.289920058427215
924,0.9442159283387628
926,-2.7336637591896857
928,1.0006701908683229
930,-1.3057717257606596
932,1.5404292547943992
934,4.001179039549514
936,-1.414773894536123
938,3.248233771030033
940,0.4896997775772239
942,3.269850699677664
944,0.8757233738836303
946,1.835094323646329
948,-1.5911823412967454
950,0.22756291881490442
952,1.4645588048001232
954,3.043621082643513
956,0.027056986644400358
958,-0.10659459427895207
960,-0.7023202398106899
962,-2.0064684457895754
964,-3.0020412361544704
966,-2.2327748367148637
968,-2.2451702637504916
970,3.087313082970052
972,-1.474238603491238
974,-1.3750943045639343
976,0.09099228775895851
978,-4.359327552662422
980,0.17173412192045567
982,0.5883557203648353
984,-0.6237451035931326
986,0.24693956783995888
988,-1.1733774690472267
990,1.089032408027303
992,0.5823660453244227
994,0.22070109661222787
996,-2.4283186811864717
998,-1.410528741235163
1000,-1.602076920989911
1002,-0.0723170684905614
1004,-2.2803875418149437
1006,-0.15982876153475076
1008,-1.1915084778267833
1010,-1.9937058314243845
1012,1.598653035792643
1014,-0.6487785841223528
1016,2.324849570691117
1018,0.7091701747258704
