wave,flux
336,2.7946511387812203
338,1.2086341062630381
340,0.5525659438801804
342,100.04501847814525
344,755.1613320403769
346,2255.671358900472
348,4485.528115294255
350,7452.962541237913
352,10828.686122799345
354,14120.79355544381
356,17591.749122829577
358,21943.625094441722
360,27712.435076242888
362,34443.3590068633
364,41366.71143055577
366,49100.670506319046
368,58555.54262473563
370,69578.25956118088
372,81373.33945243573
374,93154.63515562074
376,105226.66666916308
378,118659.68892431562
380,133590.31024501068
382,148999.01692597862
384,165719.03889889957
386,185874.58341211334
388,211642.92855240314
390,248614.69708646944
392,312293.48106648336
394,415594.4431944807
396,571357.3499763295
398,786293.9250756758
400,1075220.486118648
402,1439184.9785676051
404,1866541.8824166635
406,2332917.6491723456
408,2813980.2164210575
410,3279587.8534775823
412,3688345.734046418
414,4000778.703373066
416,4207605.933409236
418,4344776.284695766
420,4483217.711063388
422,4690522.678250303
424,4984995.283648629
426,5323455.874075102
428,5637352.024038919
430,5859576.544462698
432,5983189.112362822
434,6032715.635973887
436,6041174.309550708
438,6041504.796397735
440,6041682.239567668
442,6041194.669707738
444,6041168.110707795
446,6041586.17605058
448,6041341.005834274
450,6041256.076411981
452,6041655.788777071
454,6041223.816151385
456,6041322.754374809
458,6041577.975625667
460,6041257.651666923
462,6041595.470569694
464,6041075.608096263
466,6041273.594552749
468,6041743.019744299
470,6041251.032945844
472,6041135.785773465
474,6041247.095804265
476,6040946.3777200645
478,6041526.415929119
480,6041045.609064084
482,6041648.644458521
484,6041421.909955564
486,6041408.4211466415
488,6041446.844454553
490,6041819.314022796
492,6041219.338524738
494,6041429.584527363
496,6041342.887231448
498,6041281.09005926
500,6041455.714886831
502,6041083.955847366
504,6041594.337500211
506,6041347.904564226
508,6041985.305963552
510,6041703.999782239
512,6041507.3437183965
514,6041332.610707753
516,6041697.304355713
518,6041576.72227912
520,6041454.82805327
522,6041567.764385948
524,6041139.6046891445
526,6041715.605508588
528,6041335.504047506
530,6041463.455639041
532,6041289.584598807
534,6041594.206220951
536,6041516.407329012
538,6041036.635188959
540,6041539.276969702
542,6041592.8480023
544,6041241.1268256605
546,6040964.836989732
548,6041085.716276027
550,6041256.845798854
552,6041194.983865459
554,6041388.064345405
556,6041171.419621857
558,6041528.816717684
560,6041528.821144585
562,6041162.781809607
564,6041569.962689511
566,6041390.354820553
568,6042014.825024597
570,6041304.380061388
572,6041338.704135967
574,6041497.927856244
576,6041255.534419784
578,6041348.497409752
580,6041434.379637618
582,6041132.718049988
584,6041122.476906277
586,6041551.844020755
588,6041521.638751647
590,6041503.401291246
592,6041721.825787382
594,6041663.618776369
596,6041532.401840216
598,6041824.518577098
600,6041412.834918265
602,6041309.545617267
604,6041494.156562529
606,6041425.963948141
608,6041234.663073452
610,6041216.935560277
612,6041340.467880717
614,6041451.226366221
616,6041506.190578301
618,6041616.54739714
620,6041628.200394764
622,6041533.167199151
624,6041389.164570741
626,6040920.218036294
628,6040433.239863135
630,6040673.746455376
632,6041891.5747681055
634,6041431.045722184
636,6040285.877398654
638,6041658.137186429
640,6042030.99953481
642,6040817.019538791
644,6040374.46419342
646,6041478.005290988
648,6041658.572165721
650,6038850.129535198
652,6038933.138244199
654,6041738.420244683
656,6041999.7508176295
658,6041738.499289948
660,6041604.779657301
662,6041373.782774386
664,6041483.769193824
666,6041443.700136057
668,6041107.988734172
670,6041563.760941481
672,6041267.206278078
674,6041163.483843586
676,6041536.12891586
678,6041346.2434534915
680,6041150.289956291
682,6041410.314774397
684,6041560.064687422
686,6041447.9187860545
688,6040955.81893969
690,6041315.875338955
692,6041350.307975556
694,6041850.281893436
696,6041497.367671758
698,6041199.302168769
700,6041453.64627868
702,6041828.693192877
704,6040860.42770877
706,6041675.622792104
708,6041571.681644926
710,6041346.454989626
712,6041546.234560798
714,6041858.824615336
716,6041142.5820534965
718,6041286.403162461
720,6041703.1207177285
722,6041807.585318082
724,6041329.8607438
726,6041296.890614847
728,6041527.288726995
730,6041723.792105585
732,6041192.330811199
734,6041150.1016538385
736,6041704.398114255
738,6041255.137810724
740,6041344.973276121
742,6041402.044472554
744,6041509.896928869
746,6041611.23472158
748,6041281.529689905
750,6041392.455248062
752,6040981.1977447625
754,6041295.389267499
756,6041239.4416478425
758,6041271.659960353
760,6041533.037164191
762,6033170.558480699
764,5997309.196911797
766,5919816.184365741
768,5789128.623488824
770,5591227.92157777
772,5331562.926099856
774,5030824.995786329
776,4699258.250554136
778,4346757.545140255
780,3987299.429810042
782,3631624.3336451664
784,3286378.269654552
786,2964560.482130975
788,2677357.907088312
790,2431812.978824052
792,2227005.630354121
794,2056991.6675400746
796,1912122.286436368
798,1783069.2196949078
800,1663500.214270693
802,1548744.6415391257
804,1440089.3704584274
806,1338355.7413583586
808,1246002.4351940232
810,1164641.9993123675
812,1094313.8934356393
814,1033315.1507154639
816,979276.3012057306
818,928884.3489745458
820,880151.1850921786
822,831067.2044299131
824,781134.7456778135
826,731197.4373941015
828,682133.9307999852
830,635157.065687494
832,590767.9318637582
834,549817.9262336656
836,511926.9827578021
838,476508.58827418834
840,442988.8091633684
842,410512.7161371145
844,378885.83903410326
846,347759.8550145639
848,317145.038704723
850,286997.5341464601
852,257814.11993689087
854,229635.74166079867
856,202883.51438950063
858,177548.2583061767
860,153963.78261275878
862,132580.8515415665
864,113288.53811543316
866,96239.40874515912
868,81413.00428997858
870,68826.20859127876
872,58133.754868965356
874,49160.33286656182
876,41666.7751322839
878,35497.06635140222
880,30295.018445045593
882,25695.68578759554
884,21591.37521759164
886,17852.922836174053
888,14389.809163301048
890,11160.697668091325
892,8122.388938503005
894,5540.658797514908
896,3560.8201047046186
898,2067.8082667675035
900,1036.1379326991748
902,389.7262820249188
904,91.05201843704549
906,33.85408597934234
908,10.175341117526877
910,0.4798427012002451
912,-3.482973111878331
914,2.393407046365594
916,-5.54246237681494
918,-0.29287613119402345
920,-2.3379566926154904
922,4.289920058427215
924,0.9442159283387628
926,-2.7336637591896857
928,1.0006701908683229
930,-1.3057717257606596
932,1.5404292547943992
934,4.001179039549514
936,-1.414773894536123
938,3.248233771030033
940,0.4896997775772239
942,3.269850699677664
944,0.8757233738836303
946,1.835094323646329
948,-1.5911823412967454
950,0.22756291881490442
952,1.4645588048001232
954,3.043621082643513
956,0.027056986644400358
958,-0.10659459427895207
960,-0.7023202398106899
962,-2.0064684457895754
964,-3.0020412361544704
966,-2.2327748367148637
968,-2.2451702637504916
970,3.087313082970052
972,-1.474238603491238
974,-1.3750943045639343
976,0.09099228775895851
978,-4.359327552662422
980,0.17173412192045567
982,0.5883557203648353
984,-0.6237451035931326
986,0.24693956783995888
988,-1.1733774690472267
990,1.089032408027303
992,0.5823660453244227
994,0.22070109661222787
996,-2.4283186811864717
998,-1.410528741235163
1000,-1.602076920989911
1002,-0.0723170684905614
1004,-2.2803875418149437
1006,-0.15982876153475076
1008,-1.1915084778267833
1010,-1.9937058314243845
1012,1.598653035792643
1014,-0.6487785841223528
1016,2.324849570691117
1018,0.7091701747258704
