wave,flux
336,126.27822909874145
338,229.6728022127621
340,372.39642751790643
342,547.377666176838
344,738.4095901200889
346,1011.6062284544264
348,1573.7566157759022
350,2358.821721996241
352,3188.65959059539
354,4080.8721554784206
356,5170.422693083885
358,6513.345453494311
360,8163.225232933341
362,10053.461109500922
364,12051.195824782524
366,14209.02904150685
368,16786.93349502203
370,19979.808829224512
372,23804.804545654737
374,28347.775074742054
376,34048.06246271677
378,41949.842681163085
380,53382.40456778812
382,69120.93635650296
384,89004.16753851286
386,112165.83984921372
388,138058.2415951946
390,167402.98301929075
392,202533.73241101703
394,242876.79004535594
396,286014.7498078568
398,328436.26112951804
400,374072.16309380165
402,431182.75513691
404,510177.9705564178
406,614606.0867039136
408,738499.748935954
410,866115.2544668602
412,980384.2059416437
414,1072172.4710320449
416,1145419.586911074
418,1213656.0631176273
420,1292666.8563967247
422,1391913.77387872
424,1513346.0538562466
426,1650364.0511062348
428,1792440.353472712
430,1927801.3571473565
432,2047680.7635667755
434,2148845.4686473245
436,2236659.483809023
438,2321860.0957413125
440,2418660.9894396183
442,2536499.8877551677
444,2679769.280517017
446,2848629.9284229726
448,3040413.94223866
450,3253470.0632254477
452,3486877.580585582
454,3742937.814707194
456,4024656.442899965
458,4334695.963096516
460,4667795.2725325795
462,5002672.553440545
464,5317215.618121368
466,5586282.701437166
468,5789191.441778138
470,5920649.92261438
472,5996284.33812721
474,6031361.43409309
476,6041238.05513941
478,6041609.662827033
480,6041417.091877337
482,6041760.335956379
484,6041499.834438152
486,6041313.6419964
488,6041120.567883686
490,6041165.929807891
492,6041609.21056326
494,6041393.109684352
496,6041947.32645905
498,6041087.207767608
500,6041306.741269523
502,6041397.64919087
504,6041194.333139729
506,6041637.430610582
508,6040960.003688457
510,6042012.839654178
512,6041324.770770037
514,6041279.3160479115
516,6041434.769328399
518,6041701.033388307
520,6041498.897038074
522,6041243.903655055
524,6040868.209079363
526,6041493.969365597
528,6041713.035459926
530,6041299.529372964
532,6041232.388584381
534,6041781.433022898
536,6041178.71558785
538,6041482.807114868
540,6041564.973425009
542,6041103.174238356
544,6041243.873319358
546,6041378.297830701
548,6041528.453419281
550,6041159.456564564
552,6040896.117404652
554,6041519.882990877
556,6041405.05662535
558,6041712.172076771
560,6041820.609755871
562,6041698.581060925
564,6041782.780651341
566,6041313.344724632
568,6041230.013545186
570,6041165.042949268
572,6041059.910663543
574,6041315.77158558
576,6041185.112094869
578,6041551.5077873105
580,6041530.067278047
582,6041159.035979418
584,6041399.511280179
586,6041393.4438306475
588,6041551.028902494
590,6041521.765864272
592,6041465.957779602
594,6041573.04207609
596,6041586.058206329
598,6041339.433985027
600,6041368.707026992
602,6041521.202572968
604,6041610.710691464
606,6041448.327172806
608,6041139.491822584
610,6041536.099158816
612,6041648.7636248395
614,6041381.082852911
616,6041361.251439233
618,6041040.135601972
620,6041491.921099455
622,6042174.264033717
624,6041762.837755426
626,6041838.957739549
628,6041456.618200052
630,6040876.631397808
632,6042627.026587225
634,6042662.718582962
636,6040643.016603184
638,6040363.266627855
640,6041126.477337318
642,6040389.343967176
644,6038431.32317666
646,6041739.770691591
648,6041729.922957791
650,6041515.138711881
652,6041756.093178377
654,6041397.7104303865
656,6041151.108285922
658,6041511.424224842
660,6041551.262087447
662,6041377.486713405
664,6041484.487440191
666,6041443.750089406
668,6041107.991048774
670,6041563.760999665
672,6041267.2062764475
674,6041163.483843256
676,6041536.128915831
678,6041346.24345349
680,6041150.289956291
682,6041410.314774397
684,6041560.064687422
686,6041447.9187860545
688,6040955.81893969
690,6041315.875338955
692,6041350.307975556
694,6041850.281893436
696,6041497.367671758
698,6041199.302168769
700,6041453.64627868
702,6041828.693192877
704,6040860.42770877
706,6041675.622792104
708,6041571.681644926
710,6041346.454989626
712,6041546.234560798
714,6041858.824615336
716,6041142.5820534965
718,6041286.403162461
720,6041703.1207177285
722,6041807.585318082
724,6041329.8607438
726,6041296.890614847
728,6041527.288726995
730,6041723.792105585
732,6041192.330811199
734,6041150.1016538385
736,6041704.398114255
738,6041255.137810724
740,6041344.973276121
742,6041402.044472554
744,6041509.896928869
746,6041611.23472158
748,6041281.529689905
750,6041392.455248062
752,6040981.1977447625
754,6041295.389267499
756,6041239.4416478425
758,6041271.659960353
760,6041533.037164191
762,6033170.558480699
764,5997309.196911797
766,5919816.184365741
768,5789128.623488824
770,5591227.92157777
772,5331562.926099856
774,5030824.995786329
776,4699258.250554136
778,4346757.545140255
780,3987299.429810042
782,3631624.3336451664
784,3286378.269654552
786,2964560.482130975
788,2677357.907088312
790,2431812.978824052
792,2227005.630354121
794,2056991.6675400746
796,1912122.286436368
798,1783069.2196949078
800,1663500.214270693
802,1548744.6415391257
804,1440089.3704584274
806,1338355.7413583586
808,1246002.4351940232
810,1164641.9993123675
812,1094313.8934356393
814,1033315.1507154639
816,979276.3012057306
818,928884.3489745458
820,880151.1850921786
822,831067.2044299131
824,781134.7456778135
826,731197.4373941015
828,682133.9307999852
830,635157.065687494
832,590767.9318637582
834,549817.9262336656
836,511926.9827578021
838,476508.58827418834
840,442988.8091633684
842,410512.7161371145
844,378885.83903410326
846,347759.8550145639
848,317145.038704723
850,286997.5341464601
852,257814.11993689087
854,229635.74166079867
856,202883.51438950063
858,177548.2583061767
860,153963.78261275878
862,132580.8515415665
864,113288.53811543316
866,96239.40874515912
868,81413.00428997858
870,68826.20859127876
872,58133.754868965356
874,49160.33286656182
876,41666.7751322839
878,35497.06635140222
880,30295.018445045593
882,25695.68578759554
884,21591.37521759164
886,17852.922836174053
888,14389.809163301048
890,11160.697668091325
892,8122.388938503005
894,5540.658797514908
896,3560.8201047046186
898,2067.8082667675035
900,1036.1379326991748
902,389.7262820249188
904,91.05201843704549
906,33.85408597934234
908,10.175341117526877
910,0.4798427012002451
912,-3.482973111878331
914,2.393407046365594
916,-5.54246237681494
918,-0.29287613119402345
920,-2.3379566926154904
922,4.289920058427215
924,0.9442159283387628
926,-2.7336637591896857
928,1.0006701908683229
930,-1.3057717257606596
932,1.5404292547943992
934,4.001179039549514
936,-1.414773894536123
938,3.248233771030033
940,0.4896997775772239
942,3.269850699677664
944,0.8757233738836303
946,1.835094323646329
948,-1.5911823412967454
950,0.22756291881490442
952,1.4645588048001232
954,3.043621082643513
956,0.027056986644400358
958,-0.10659459427895207
960,-0.7023202398106899
962,-2.0064684457895754
964,-3.0020412361544704
966,-2.2327748367148637
968,-2.2451702637504916
970,3.087313082970052
972,-1.474238603491238
974,-1.3750943045639343
976,0.09099228775895851
978,-4.359327552662422
980,0.17173412192045567
982,0.5883557203648353
984,-0.6237451035931326
986,0.24693956783995888
988,-1.1733774690472267
990,1.089032408027303
992,0.5823660453244227
994,0.22070109661222787
996,-2.4283186811864717
998,-1.410528741235163
1000,-1.602076920989911
1002,-0.0723170684905614
1004,-2.2803875418149437
1006,-0.15982876153475076
1008,-1.1915084778267833
1010,-1.9937058314243845
1012,1.598653035792643
1014,-0.6487785841223528
1016,2.324849570691117
1018,0.7091701747258704
