wave,flux
336,7214.796965583598
338,9617.08710036131
340,12639.7066329059
342,16647.854999999734
344,21105.21367059396
346,26138.05648440637
348,32268.606348629633
350,39796.60141084724
352,48900.31452933251
354,58998.01200353963
356,69492.16253881928
358,79949.42093187054
360,90315.53340458477
362,101153.05342507696
364,113378.16444426498
366,128921.38909932187
368,151164.1844604902
370,187265.6874925489
372,254281.87958939472
374,382834.9596338015
376,604750.4737279129
378,922274.1028437327
380,1292560.059015399
382,1644835.223936265
384,1923415.3583002272
386,2114659.2013077037
388,2244217.9217685927
390,2361982.783717707
392,2518395.459434877
394,2740691.3031950197
396,3013711.256514578
398,3291611.742059058
400,3539679.46355558
402,3751989.584173462
404,3950381.6421249406
406,4154287.099461133
408,4369689.611997587
410,4583309.725537779
412,4767163.360354869
414,4888927.248859901
416,4927491.557279205
418,4886688.234637984
420,4797634.05500804
422,4700394.484313897
424,4626696.2525100345
426,4592874.604779755
428,4599477.177241096
430,4640634.210539881
432,4707607.620964136
434,4790870.025831323
436,4885140.424107779
438,4984329.609507628
440,5088202.705819902
442,5194828.371353412
444,5304793.287766537
446,5425541.91970404
448,5552435.304287112
450,5681224.238713649
452,5803915.866751837
454,5905893.196669622
456,5975436.228499725
458,6017319.181054151
460,6036797.190753492
462,6041416.929036187
464,6041542.437273118
466,6041400.441496059
468,6041191.268883618
470,6041249.010716527
472,6041178.565930535
474,6041500.059492824
476,6041231.16776737
478,6041242.785138785
480,6041395.4368898235
482,6041288.899252111
484,6041761.77568044
486,6041478.265816703
488,6041665.857934301
490,6041442.946293334
492,6041565.532794699
494,6041697.964567901
496,6041554.566139654
498,6041775.705526371
500,6041301.896023915
502,6041235.145423719
504,6041561.335555254
506,6041042.076004428
508,6041590.831908457
510,6041885.452335844
512,6041460.202762002
514,6041572.538034762
516,6041349.038459824
518,6041046.504136432
520,6041605.025961389
522,6041457.600755679
524,6041570.120020545
526,6041474.386497259
528,6040777.828239595
530,6041631.329735974
532,6040924.57488802
534,6041523.349419283
536,6041560.272766061
538,6041215.247208638
540,6041451.223644639
542,6041250.283336594
544,6041755.040020822
546,6041396.272496097
548,6041303.832632361
550,6041550.245161028
552,6041251.390555956
554,6041436.225513001
556,6041672.611692781
558,6041490.207167315
560,6041101.620813712
562,6041343.366220451
564,6041910.958499704
566,6041643.069805643
568,6041550.978515441
570,6041383.331034237
572,6041517.538809113
574,6041033.326128717
576,6041212.848705686
578,6041347.935891258
580,6040944.097887998
582,6041170.909754712
584,6041900.137335245
586,6041636.109621264
588,6041316.950863913
590,6041404.327312747
592,6041319.666539144
594,6041255.469057511
596,6041340.996541858
598,6041180.159146541
600,6041260.286845643
602,6041240.685794136
604,6041249.212933771
606,6041134.25373011
608,6040629.611104667
610,6040944.067825478
612,6041411.431316101
614,6041487.780415888
616,6041569.684187741
618,6041847.759749433
620,6040264.881595277
622,6039070.15170113
624,6041681.860039475
626,6043195.269972235
628,6042435.06400163
630,6041337.427029937
632,6041934.371760898
634,6042649.9271900095
636,6042298.926666878
638,6041464.663453439
640,6041796.200481567
642,6042805.098681084
644,6042824.584093027
646,6042142.174145627
648,6041716.166783977
650,6042189.497408252
652,6042531.672376865
654,6042531.329306938
656,6042709.760555902
658,6042345.552087331
660,6041511.146023935
662,6041667.876493249
664,6043807.618069021
666,6043664.019041312
668,6041462.704067868
670,6041373.293966647
672,6041278.173950489
674,6041165.703168865
676,6041536.324222982
678,6041346.2572168615
680,6041150.290820191
682,6041410.31482459
684,6041560.064690173
686,6041447.918786199
688,6040955.818939696
690,6041315.875338953
692,6041350.307975556
694,6041850.281893436
696,6041497.367671758
698,6041199.302168769
700,6041453.64627868
702,6041828.693192877
704,6040860.42770877
706,6041675.622792104
708,6041571.681644926
710,6041346.454989626
712,6041546.234560798
714,6041858.824615336
716,6041142.5820534965
718,6041286.403162461
720,6041703.1207177285
722,6041807.585318082
724,6041329.8607438
726,6041296.890614847
728,6041527.288726995
730,6041723.792105585
732,6041192.330811199
734,6041150.1016538385
736,6041704.398114255
738,6041255.137810724
740,6041344.973276121
742,6041402.044472554
744,6041509.896928869
746,6041611.23472158
748,6041281.529689905
750,6041392.455248062
752,6040981.1977447625
754,6041295.389267499
756,6041239.4416478425
758,6041271.659960353
760,6041533.037164191
762,6033170.558480699
764,5997309.196911797
766,5919816.184365741
768,5789128.623488824
770,5591227.92157777
772,5331562.926099856
774,5030824.995786329
776,4699258.250554136
778,4346757.545140255
780,3987299.429810042
782,3631624.3336451664
784,3286378.269654552
786,2964560.482130975
788,2677357.907088312
790,2431812.978824052
792,2227005.630354121
794,2056991.6675400746
796,1912122.286436368
798,1783069.2196949078
800,1663500.214270693
802,1548744.6415391257
804,1440089.3704584274
806,1338355.7413583586
808,1246002.4351940232
810,1164641.9993123675
812,1094313.8934356393
814,1033315.1507154639
816,979276.3012057306
818,928884.3489745458
820,880151.1850921786
822,831067.2044299131
824,781134.7456778135
826,731197.4373941015
828,682133.9307999852
830,635157.065687494
832,590767.9318637582
834,549817.9262336656
836,511926.9827578021
838,476508.58827418834
840,442988.8091633684
842,410512.7161371145
844,378885.83903410326
846,347759.8550145639
848,317145.038704723
850,286997.5341464601
852,257814.11993689087
854,229635.74166079867
856,202883.51438950063
858,177548.2583061767
860,153963.78261275878
862,132580.8515415665
864,113288.53811543316
866,96239.40874515912
868,81413.00428997858
870,68826.20859127876
872,58133.754868965356
874,49160.33286656182
876,41666.7751322839
878,35497.06635140222
880,30295.018445045593
882,25695.68578759554
884,21591.37521759164
886,17852.922836174053
888,14389.809163301048
890,11160.697668091325
892,8122.388938503005
894,5540.658797514908
896,3560.8201047046186
898,2067.8082667675035
900,1036.1379326991748
902,389.7262820249188
904,91.05201843704549
906,33.85408597934234
908,10.175341117526877
910,0.4798427012002451
912,-3.482973111878331
914,2.393407046365594
916,-5.54246237681494
918,-0.29287613119402345
920,-2.3379566926154904
922,4.289920058427215
924,0.9442159283387628
926,-2.7336637591896857
928,1.0006701908683229
930,-1.3057717257606596
932,1.5404292547943992
934,4.001179039549514
936,-1.414773894536123
938,3.248233771030033
940,0.4896997775772239
942,3.269850699677664
944,0.8757233738836303
946,1.835094323646329
948,-1.5911823412967454
950,0.22756291881490442
952,1.4645588048001232
954,3.043621082643513
956,0.027056986644400358
958,-0.10659459427895207
960,-0.7023202398106899
962,-2.0064684457895754
964,-3.0020412361544704
966,-2.2327748367148637
968,-2.2451702637504916
970,3.087313082970052
972,-1.474238603491238
974,-1.3750943045639343
976,0.09099228775895851
978,-4.359327552662422
980,0.17173412192045567
982,0.5883557203648353
984,-0.6237451035931326
986,0.24693956783995888
988,-1.1733774690472267
990,1.089032408027303
992,0.5823660453244227
994,0.22070109661222787
996,-2.4283186811864717
998,-1.410528741235163
1000,-1.602076920989911
1002,-0.0723170684905614
1004,-2.2803875418149437
1006,-0.15982876153475076
1008,-1.1915084778267833
1010,-1.9937058314243845
1012,1.598653035792643
1014,-0.6487785841223528
1016,2.324849570691117
1018,0.7091701747258704
