wave,flux
336,228.7054906649236
338,371.0266606889716
340,564.2451236799726
342,883.4989745068955
344,1318.8969997965069
346,1865.9276076218039
348,2569.433068556294
350,3457.0270863231412
352,4559.518000215627
354,5903.641079427647
356,7475.456854373552
358,9251.909320500643
360,11327.879243047757
362,13783.849613382847
364,16675.194056433455
366,20068.696804479856
368,24149.548887391393
370,29133.483013053734
372,35241.42135470095
374,42970.50021771695
376,53278.208767781034
378,67317.71466269712
380,85916.45489159107
382,109222.11114811387
384,136599.71950230855
386,166891.9915151694
388,199142.52335356225
390,234541.3943416896
392,276772.467647134
394,329394.9843280309
396,393016.05663615966
398,464859.036985372
400,541279.2360977536
402,620686.9814991654
404,704226.8699845325
406,795230.3548477867
408,896673.2128814451
410,1008910.5697497656
412,1128897.0818456407
414,1252437.392573647
416,1374813.3160743741
418,1494936.5147820076
420,1613773.1227539515
422,1735065.788792679
424,1863662.6934426522
426,2004193.4142489163
428,2158743.6152389045
430,2327718.2900888254
432,2509378.486064234
434,2701695.268414475
436,2904629.7245616755
438,3120181.498376227
440,3350369.252747239
442,3597017.214179738
444,3859759.3729532314
446,4135660.9283904377
448,4422348.768705615
450,4718234.200201703
452,5015291.511355228
454,5296497.566279527
456,5546933.064606365
458,5749123.500786252
460,5890828.804389234
462,5977197.472846849
464,6021826.674931823
466,6038859.980242103
468,6041563.725886559
470,6041300.9612628585
472,6041404.116048434
474,6041429.69373398
476,6041246.540113219
478,6041694.498509625
480,6041408.678992485
482,6041178.487868206
484,6041398.541123137
486,6041359.856980126
488,6041370.774098009
490,6041463.155390402
492,6041143.695862679
494,6041518.32618944
496,6041081.844551389
498,6041195.357498597
500,6041616.1318167765
502,6041440.951741699
504,6041287.767620818
506,6041636.482663759
508,6041256.497905118
510,6041446.941583295
512,6041362.481743035
514,6041224.13543027
516,6041742.2062834
518,6041041.233418337
520,6041476.459306644
522,6041269.234364185
524,6041392.26993044
526,6041696.446908658
528,6041322.201718355
530,6041163.123888046
532,6041511.658694853
534,6041311.212119828
536,6041579.362735143
538,6041312.780838987
540,6041442.059375254
542,6041496.598863201
544,6041249.495029395
546,6041280.9174345415
548,6041397.575934681
550,6041351.28186323
552,6041460.440127199
554,6041619.404222826
556,6041759.861050017
558,6041472.754157632
560,6041477.225967932
562,6041596.582325528
564,6041205.723565894
566,6041540.858952905
568,6041437.7441817755
570,6041348.364634076
572,6041468.209912479
574,6041389.1105086515
576,6041423.019180159
578,6041122.290314407
580,6041435.285082689
582,6041850.161026655
584,6041414.831567809
586,6041344.988258175
588,6041173.834678901
590,6041470.165039329
592,6041366.98688227
594,6040957.331334616
596,6041145.698682554
598,6041744.6485245805
600,6041579.297361338
602,6041274.876366344
604,6041263.337603121
606,6041426.5573939495
608,6041506.669735856
610,6041302.784579417
612,6041192.770113519
614,6041193.727833165
616,6041239.318425976
618,6041846.866591942
620,6041965.1739412295
622,6041335.696590245
624,6040720.982285489
626,6040226.357178131
628,6039848.284974749
630,6039583.2293819245
632,6039427.654106234
634,6039378.022854257
636,6039430.799332569
638,6039582.447247755
640,6039829.430306386
642,6040168.212215046
644,6040595.256680312
646,6041107.027408762
648,6041641.548651012
650,6041399.959739367
652,6041705.719979433
654,6041397.689665482
656,6041151.216914363
658,6041511.431222344
660,6041551.262288629
662,6041377.486709211
664,6041484.487439378
666,6041443.750089349
668,6041107.991048771
670,6041563.760999665
672,6041267.2062764475
674,6041163.483843256
676,6041536.128915831
678,6041346.24345349
680,6041150.289956291
682,6041410.314774397
684,6041560.064687422
686,6041447.9187860545
688,6040955.81893969
690,6041315.875338955
692,6041350.307975556
694,6041850.281893436
696,6041497.367671758
698,6041199.302168769
700,6041453.64627868
702,6041828.693192877
704,6040860.42770877
706,6041675.622792104
708,6041571.681644926
710,6041346.454989626
712,6041546.234560798
714,6041858.824615336
716,6041142.5820534965
718,6041286.403162461
720,6041703.1207177285
722,6041807.585318082
724,6041329.8607438
726,6041296.890614847
728,6041527.288726995
730,6041723.792105585
732,6041192.330811199
734,6041150.1016538385
736,6041704.398114255
738,6041255.137810724
740,6041344.973276121
742,6041402.044472554
744,6041509.896928869
746,6041611.23472158
748,6041281.529689905
750,6041392.455248062
752,6040981.1977447625
754,6041295.389267499
756,6041239.4416478425
758,6041271.659960353
760,6041533.037164191
762,6033170.558480699
764,5997309.196911797
766,5919816.184365741
768,5789128.623488824
770,5591227.92157777
772,5331562.926099856
774,5030824.995786329
776,4699258.250554136
778,4346757.545140255
780,3987299.429810042
782,3631624.3336451664
784,3286378.269654552
786,2964560.482130975
788,2677357.907088312
790,2431812.978824052
792,2227005.630354121
794,2056991.6675400746
796,1912122.286436368
798,1783069.2196949078
800,1663500.214270693
802,1548744.6415391257
804,1440089.3704584274
806,1338355.7413583586
808,1246002.4351940232
810,1164641.9993123675
812,1094313.8934356393
814,1033315.1507154639
816,979276.3012057306
818,928884.3489745458
820,880151.1850921786
822,831067.2044299131
824,781134.7456778135
826,731197.4373941015
828,682133.9307999852
830,635157.065687494
832,590767.9318637582
834,549817.9262336656
836,511926.9827578021
838,476508.58827418834
840,442988.8091633684
842,410512.7161371145
844,378885.83903410326
846,347759.8550145639
848,317145.038704723
850,286997.5341464601
852,257814.11993689087
854,229635.74166079867
856,202883.51438950063
858,177548.2583061767
860,153963.78261275878
862,132580.8515415665
864,113288.53811543316
866,96239.40874515912
868,81413.00428997858
870,68826.20859127876
872,58133.754868965356
874,49160.33286656182
876,41666.7751322839
878,35497.06635140222
880,30295.018445045593
882,25695.68578759554
884,21591.37521759164
886,17852.922836174053
888,14389.809163301048
890,11160.697668091325
892,8122.388938503005
894,5540.658797514908
896,3560.8201047046186
898,2067.8082667675035
900,1036.1379326991748
902,389.7262820249188
904,91.05201843704549
906,33.85408597934234
908,10.175341117526877
910,0.4798427012002451
912,-3.482973111878331
914,2.393407046365594
916,-5.54246237681494
918,-0.29287613119402345
920,-2.3379566926154904
922,4.289920058427215
924,0.9442159283387628
926,-2.7336637591896857
928,1.0006701908683229
930,-1.3057717257606596
932,1.5404292547943992
934,4.001179039549514
936,-1.414773894536123
938,3.248233771030033
940,0.4896997775772239
942,3.269850699677664
944,0.8757233738836303
946,1.835094323646329
948,-1.5911823412967454
950,0.22756291881490442
952,1.4645588048001232
954,3.043621082643513
956,0.027056986644400358
958,-0.10659459427895207
960,-0.7023202398106899
962,-2.0064684457895754
964,-3.0020412361544704
966,-2.2327748367148637
968,-2.2451702637504916
970,3.087313082970052
972,-1.474238603491238
974,-1.3750943045639343
976,0.09099228775895851
978,-4.359327552662422
980,0.17173412192045567
982,0.5883557203648353
984,-0.6237451035931326
986,0.24693956783995888
988,-1.1733774690472267
990,1.089032408027303
992,0.5823660453244227
994,0.22070109661222787
996,-2.4283186811864717
998,-1.410528741235163
1000,-1.602076920989911
1002,-0.0723170684905614
1004,-2.2803875418149437
1006,-0.15982876153475076
1008,-1.1915084778267833
1010,-1.9937058314243845
1012,1.598653035792643
1014,-0.6487785841223528
1016,2.324849570691117
1018,0.7091701747258704
