wave,flux
336,871.8133025689472
338,1272.7761616573475
340,1720.713627675686
342,2273.2742283285957
344,2944.930606802496
346,3859.137127818117
348,5066.406337512855
350,6426.180087040706
352,7906.087699387027
354,9724.0032587268
356,11846.019093554152
358,14112.286754109666
360,16725.30771954361
362,19900.538493074797
364,23506.042372913376
366,27712.17919140612
368,33217.98239938082
370,41180.72043043016
372,53957.11651622549
374,74893.71518763877
376,106537.99539073643
378,147265.60226550736
380,192313.67534708456
382,237132.63561417654
384,282111.580967261
386,329496.8753850207
388,379220.35445035406
390,429860.4502018908
392,483772.00830970693
394,543485.2815620754
396,610622.1784518346
398,683236.0408168869
400,763624.727201954
402,853976.6021693939
404,954597.364818852
406,1058763.4986563642
408,1158275.7558405874
410,1247307.9154007728
412,1326366.128640866
414,1402242.2583544452
416,1483604.495497429
418,1576482.6974591794
420,1683284.888328259
422,1804346.9439377957
424,1943439.4774476844
426,2106328.672980068
428,2298215.1432340527
430,2513240.399383433
432,2734361.508949894
434,2942316.117443437
436,3126043.318702104
438,3289111.1043819184
440,3445885.593324344
442,3610972.887737446
444,3793673.405234978
446,3996374.4459349895
448,4218998.990997299
450,4466282.161466402
452,4742902.528795469
454,5033458.284007813
456,5321383.149917754
458,5582706.595799971
460,5785929.3023192845
462,5920444.149083586
464,5997922.935927844
466,6033119.227248296
468,6041438.345403564
470,6041100.904534481
472,6041417.617626642
474,6041117.70420445
476,6041395.106749197
478,6041581.687501291
480,6041584.574952676
482,6041491.988496114
484,6041505.980095138
486,6041641.214645576
488,6041432.846002702
490,6041239.5839768555
492,6041332.202356905
494,6040944.292522135
496,6041238.669390949
498,6041079.851372183
500,6041154.337080945
502,6041165.990940188
504,6041450.8358951975
506,6041666.137687847
508,6041287.703931123
510,6041315.410574407
512,6041134.196587183
514,6041545.192969157
516,6041424.448997989
518,6041597.206506735
520,6041505.931979033
522,6041309.189950532
524,6041537.827739844
526,6041550.574216098
528,6040929.031503279
530,6041095.071940862
532,6041755.718015
534,6041569.79516836
536,6041683.076670107
538,6041405.390737926
540,6041828.333529029
542,6041622.472549767
544,6041600.153046645
546,6041729.7207147535
548,6041066.886100889
550,6041219.424938363
552,6040961.1943239
554,6041145.513955365
556,6041041.406498849
558,6041247.196314581
560,6041374.813904636
562,6041322.268618182
564,6041296.232071477
566,6041468.900056479
568,6041174.077726208
570,6041979.859996934
572,6041462.749578305
574,6041262.079643458
576,6041108.516997305
578,6041680.492457488
580,6041830.579410825
582,6041349.187415589
584,6041425.80831256
586,6041404.621255821
588,6041150.294727034
590,6041413.732644112
592,6041448.605693558
594,6041335.473369556
596,6041620.705199258
598,6041916.0176005615
600,6041613.5379141085
602,6041127.392127041
604,6041165.046031245
606,6041327.787777828
608,6040926.964114092
610,6041345.717029344
612,6041727.137215648
614,6041538.5319398595
616,6041389.945396308
618,6041561.589834387
620,6040804.806095861
622,6040290.150289606
624,6041732.484423987
626,6041910.575000685
628,6041368.799353055
630,6041578.100166826
632,6042093.994703715
634,6042101.774177734
636,6041605.758842652
638,6041277.788117407
640,6041179.26176587
642,6041238.186656007
644,6041382.569655772
646,6041540.417633124
648,6041639.736168168
650,6041398.920532133
652,6041705.672855067
654,6041397.689646055
656,6041151.2170159845
658,6041511.43122889
660,6041551.262288819
662,6041377.486709205
664,6041484.487439376
666,6041443.750089349
668,6041107.991048771
670,6041563.760999665
672,6041267.2062764475
674,6041163.483843256
676,6041536.128915831
678,6041346.24345349
680,6041150.289956291
682,6041410.314774397
684,6041560.064687422
686,6041447.9187860545
688,6040955.81893969
690,6041315.875338955
692,6041350.307975556
694,6041850.281893436
696,6041497.367671758
698,6041199.302168769
700,6041453.64627868
702,6041828.693192877
704,6040860.42770877
706,6041675.622792104
708,6041571.681644926
710,6041346.454989626
712,6041546.234560798
714,6041858.824615336
716,6041142.5820534965
718,6041286.403162461
720,6041703.1207177285
722,6041807.585318082
724,6041329.8607438
726,6041296.890614847
728,6041527.288726995
730,6041723.792105585
732,6041192.330811199
734,6041150.1016538385
736,6041704.398114255
738,6041255.137810724
740,6041344.973276121
742,6041402.044472554
744,6041509.896928869
746,6041611.23472158
748,6041281.529689905
750,6041392.455248062
752,6040981.1977447625
754,6041295.389267499
756,6041239.4416478425
758,6041271.659960353
760,6041533.037164191
762,6033170.558480699
764,5997309.196911797
766,5919816.184365741
768,5789128.623488824
770,5591227.92157777
772,5331562.926099856
774,5030824.995786329
776,4699258.250554136
778,4346757.545140255
780,3987299.429810042
782,3631624.3336451664
784,3286378.269654552
786,2964560.482130975
788,2677357.907088312
790,2431812.978824052
792,2227005.630354121
794,2056991.6675400746
796,1912122.286436368
798,1783069.2196949078
800,1663500.214270693
802,1548744.6415391257
804,1440089.3704584274
806,1338355.7413583586
808,1246002.4351940232
810,1164641.9993123675
812,1094313.8934356393
814,1033315.1507154639
816,979276.3012057306
818,928884.3489745458
820,880151.1850921786
822,831067.2044299131
824,781134.7456778135
826,731197.4373941015
828,682133.9307999852
830,635157.065687494
832,590767.9318637582
834,549817.9262336656
836,511926.9827578021
838,476508.58827418834
840,442988.8091633684
842,410512.7161371145
844,378885.83903410326
846,347759.8550145639
848,317145.038704723
850,286997.5341464601
852,257814.11993689087
854,229635.74166079867
856,202883.51438950063
858,177548.2583061767
860,153963.78261275878
862,132580.8515415665
864,113288.53811543316
866,96239.40874515912
868,81413.00428997858
870,68826.20859127876
872,58133.754868965356
874,49160.33286656182
876,41666.7751322839
878,35497.06635140222
880,30295.018445045593
882,25695.68578759554
884,21591.37521759164
886,17852.922836174053
888,14389.809163301048
890,11160.697668091325
892,8122.388938503005
894,5540.658797514908
896,3560.8201047046186
898,2067.8082667675035
900,1036.1379326991748
902,389.7262820249188
904,91.05201843704549
906,33.85408597934234
908,10.175341117526877
910,0.4798427012002451
912,-3.482973111878331
914,2.393407046365594
916,-5.54246237681494
918,-0.29287613119402345
920,-2.3379566926154904
922,4.289920058427215
924,0.9442159283387628
926,-2.7336637591896857
928,1.0006701908683229
930,-1.3057717257606596
932,1.5404292547943992
934,4.001179039549514
936,-1.414773894536123
938,3.248233771030033
940,0.4896997775772239
942,3.269850699677664
944,0.8757233738836303
946,1.835094323646329
948,-1.5911823412967454
950,0.22756291881490442
952,1.4645588048001232
954,3.043621082643513
956,0.027056986644400358
958,-0.10659459427895207
960,-0.7023202398106899
962,-2.0064684457895754
964,-3.0020412361544704
966,-2.2327748367148637
968,-2.2451702637504916
970,3.087313082970052
972,-1.474238603491238
974,-1.3750943045639343
976,0.09099228775895851
978,-4.359327552662422
980,0.17173412192045567
982,0.5883557203648353
984,-0.6237451035931326
986,0.24693956783995888
988,-1.1733774690472267
990,1.089032408027303
992,0.5823660453244227
994,0.22070109661222787
996,-2.4283186811864717
998,-1.410528741235163
1000,-1.602076920989911
1002,-0.0723170684905614
1004,-2.2803875418149437
1006,-0.15982876153475076
1008,-1.1915084778267833
1010,-1.9937058314243845
1012,1.598653035792643
1014,-0.6487785841223528
1016,2.324849570691117
1018,0.7091701747258704
