wave,flux
336,4170.322649049762
338,5996.62838008993
340,8114.928213988225
342,11355.6966861631
344,15068.12864909742
346,18647.252118084412
348,22985.21110485422
350,28018.152942696794
352,33732.398198155155
354,40670.13624784589
356,48675.96183388491
358,56783.3919870982
360,65209.569746772446
362,75288.50506225297
364,87699.33709768567
366,102256.07949398983
368,120455.71389148218
370,146430.8896353604
372,190863.50898206574
374,273547.7026346367
376,414123.4059960465
378,611520.5899063428
380,833211.907436558
382,1037860.3739312954
384,1211444.7463890153
386,1371703.159541207
388,1542992.3766062467
390,1735364.2322087535
392,1953017.3419822224
394,2207379.1156159416
396,2498369.0137173547
398,2790770.3317075437
400,3026767.8705457286
402,3171995.3732280806
404,3243599.8749963986
406,3288024.660246765
408,3340724.1265583844
410,3405915.7974283244
412,3479162.9786990704
414,3567312.7499360056
416,3686611.6322786417
418,3843988.2589673703
420,4024760.354305311
422,4211463.992344175
424,4401998.507457445
426,4624908.053139727
428,4903429.059335215
430,5222806.182287261
432,5540101.775687104
434,5790816.143598812
436,5945508.935585449
438,6020119.507165581
440,6040631.198705326
442,6041321.956111587
444,6041706.9547613505
446,6041474.735859739
448,6041193.364355423
450,6041116.221372597
452,6041467.91435827
454,6041414.426230768
456,6041395.932613842
458,6041563.541304217
460,6041557.561254619
462,6041613.575843145
464,6041253.542859088
466,6041689.449090731
468,6041344.856629384
470,6041339.149819489
472,6041293.290944489
474,6041385.419405241
476,6041374.050411983
478,6041420.434408925
480,6041230.080931375
482,6041152.573918956
484,6041597.313483618
486,6041534.224816264
488,6041616.926849546
490,6041388.709136417
492,6040962.119565528
494,6041705.0852762265
496,6041409.650357307
498,6041755.040398948
500,6041533.83082841
502,6040867.244498319
504,6041779.037040289
506,6041422.914694896
508,6041142.188009106
510,6040998.257734459
512,6041427.001348109
514,6041370.122820553
516,6041423.789219898
518,6041567.375845169
520,6041702.366076161
522,6041689.0635049
524,6041386.728107432
526,6041409.462846968
528,6041266.710075051
530,6041474.274713574
532,6041385.929661322
534,6041310.776481307
536,6041527.641319097
538,6041534.959673251
540,6041313.428785312
542,6041594.4985530805
544,6041108.799319944
546,6041385.953475217
548,6041671.695573588
550,6041531.416778557
552,6041176.3681165725
554,6041301.588772589
556,6041429.865843823
558,6041528.941205683
560,6041516.519561305
562,6041214.257002035
564,6041170.624867246
566,6041376.406863943
568,6041714.638632483
570,6041895.779269732
572,6041253.121606766
574,6041654.264315962
576,6041496.258062976
578,6041641.607040645
580,6041810.221757328
582,6041502.9908667775
584,6041345.901959881
586,6041275.291946801
588,6041545.595141673
590,6041505.33508584
592,6041304.327758354
594,6041219.292781183
596,6041520.294702968
598,6041982.917316218
600,6041421.684275096
602,6041322.978281102
604,6041530.991017505
606,6041380.050673587
608,6041281.80787136
610,6041430.130654598
612,6041127.979193636
614,6040878.279381384
616,6041352.140136421
618,6041353.769922038
620,6042511.983892524
622,6043467.855736574
624,6041883.070443032
626,6041780.758642734
628,6042624.0103112385
630,6042477.391966829
632,6041601.438693987
634,6041664.931105146
636,6042286.346290657
638,6041695.151016548
640,6041126.535000868
642,6041052.086140437
644,6041006.9915485745
646,6040990.807163525
648,6040782.986110843
650,6040393.225894613
652,6041165.8790120855
654,6042173.742273981
656,6041223.074175487
658,6040359.080834576
660,6040817.243084389
662,6041428.716790219
664,6041720.303034486
666,6041783.774626229
668,6042044.55040138
670,6041536.340020154
672,6041267.973335127
674,6041163.639058751
676,6041536.142575251
678,6041346.244416075
680,6041150.290016711
682,6041410.314777907
684,6041560.064687614
686,6041447.918786064
688,6040955.81893969
690,6041315.875338955
692,6041350.307975556
694,6041850.281893436
696,6041497.367671758
698,6041199.302168769
700,6041453.64627868
702,6041828.693192877
704,6040860.42770877
706,6041675.622792104
708,6041571.681644926
710,6041346.454989626
712,6041546.234560798
714,6041858.824615336
716,6041142.5820534965
718,6041286.403162461
720,6041703.1207177285
722,6041807.585318082
724,6041329.8607438
726,6041296.890614847
728,6041527.288726995
730,6041723.792105585
732,6041192.330811199
734,6041150.1016538385
736,6041704.398114255
738,6041255.137810724
740,6041344.973276121
742,6041402.044472554
744,6041509.896928869
746,6041611.23472158
748,6041281.529689905
750,6041392.455248062
752,6040981.1977447625
754,6041295.389267499
756,6041239.4416478425
758,6041271.659960353
760,6041533.037164191
762,6033170.558480699
764,5997309.196911797
766,5919816.184365741
768,5789128.623488824
770,5591227.92157777
772,5331562.926099856
774,5030824.995786329
776,4699258.250554136
778,4346757.545140255
780,3987299.429810042
782,3631624.3336451664
784,3286378.269654552
786,2964560.482130975
788,2677357.907088312
790,2431812.978824052
792,2227005.630354121
794,2056991.6675400746
796,1912122.286436368
798,1783069.2196949078
800,1663500.214270693
802,1548744.6415391257
804,1440089.3704584274
806,1338355.7413583586
808,1246002.4351940232
810,1164641.9993123675
812,1094313.8934356393
814,1033315.1507154639
816,979276.3012057306
818,928884.3489745458
820,880151.1850921786
822,831067.2044299131
824,781134.7456778135
826,731197.4373941015
828,682133.9307999852
830,635157.065687494
832,590767.9318637582
834,549817.9262336656
836,511926.9827578021
838,476508.58827418834
840,442988.8091633684
842,410512.7161371145
844,378885.83903410326
846,347759.8550145639
848,317145.038704723
850,286997.5341464601
852,257814.11993689087
854,229635.74166079867
856,202883.51438950063
858,177548.2583061767
860,153963.78261275878
862,132580.8515415665
864,113288.53811543316
866,96239.40874515912
868,81413.00428997858
870,68826.20859127876
872,58133.754868965356
874,49160.33286656182
876,41666.7751322839
878,35497.06635140222
880,30295.018445045593
882,25695.68578759554
884,21591.37521759164
886,17852.922836174053
888,14389.809163301048
890,11160.697668091325
892,8122.388938503005
894,5540.658797514908
896,3560.8201047046186
898,2067.8082667675035
900,1036.1379326991748
902,389.7262820249188
904,91.05201843704549
906,33.85408597934234
908,10.175341117526877
910,0.4798427012002451
912,-3.482973111878331
914,2.393407046365594
916,-5.54246237681494
918,-0.29287613119402345
920,-2.3379566926154904
922,4.289920058427215
924,0.9442159283387628
926,-2.7336637591896857
928,1.0006701908683229
930,-1.3057717257606596
932,1.5404292547943992
934,4.001179039549514
936,-1.414773894536123
938,3.248233771030033
940,0.4896997775772239
942,3.269850699677664
944,0.8757233738836303
946,1.835094323646329
948,-1.5911823412967454
950,0.22756291881490442
952,1.4645588048001232
954,3.043621082643513
956,0.027056986644400358
958,-0.10659459427895207
960,-0.7023202398106899
962,-2.0064684457895754
964,-3.0020412361544704
966,-2.2327748367148637
968,-2.2451702637504916
970,3.087313082970052
972,-1.474238603491238
974,-1.3750943045639343
976,0.09099228775895851
978,-4.359327552662422
980,0.17173412192045567
982,0.5883557203648353
984,-0.6237451035931326
986,0.24693956783995888
988,-1.1733774690472267
990,1.089032408027303
992,0.5823660453244227
994,0.22070109661222787
996,-2.4283186811864717
998,-1.410528741235163
1000,-1.602076920989911
1002,-0.0723170684905614
1004,-2.2803875418149437
1006,-0.15982876153475076
1008,-1.1915084778267833
1010,-1.9937058314243845
1012,1.598653035792643
1014,-0.6487785841223528
1016,2.324849570691117
1018,0.7091701747258704
