wave,flux
336,86.81243472915986
338,206.7854709643613
340,455.35939161014653
342,875.4371433689919
344,1447.9840736169024
346,2172.1166732567326
348,3077.6885770437284
350,4161.863339367947
352,5420.627633483454
354,6868.350206607957
356,8530.902987814608
358,10478.072521065209
360,12844.575108001209
362,15723.446890019379
364,19066.829031287405
366,22893.27774487558
368,27335.321268163425
370,32486.330525090085
372,38323.4492986526
374,44976.93378040916
376,52923.124451030046
378,62765.85628019008
380,74956.7364770992
382,90214.4384550871
384,109968.73470645094
386,136666.08395968188
388,173732.73404545977
390,224942.74873530027
392,293375.5506753967
394,378439.3236118333
396,475317.1695829647
398,577160.4140729825
400,679355.2577463482
402,780201.9034506031
404,880990.4438110844
406,984178.2416937422
408,1092351.8072532148
410,1204943.226412126
412,1318532.9549695977
414,1428118.5230387747
416,1531851.1447860105
418,1630531.96881668
420,1730010.605870398
422,1837809.0967429883
424,1961732.4163116622
426,2106227.469648182
428,2270987.0613127365
430,2451367.1033849986
432,2640118.385608942
434,2829617.2086848156
436,3018458.2548171687
438,3210188.850595487
440,3410568.3503337763
442,3626650.687969598
444,3859649.900246936
446,4108518.782518886
448,4369895.616515117
450,4640398.483690978
452,4918233.185713913
454,5190837.799032239
456,5443340.881668538
458,5660861.238572722
460,5828539.477984889
462,5938343.227305579
464,6001815.765253049
466,6031989.834115439
468,6040736.147672584
470,6041577.333017362
472,6041313.185334462
474,6041408.692520559
476,6041188.482468097
478,6041068.574238898
480,6041247.673552495
482,6041819.722284284
484,6041439.810379283
486,6041474.635945622
488,6041682.909531309
490,6041242.19720435
492,6041283.762630355
494,6041696.280767117
496,6041499.886563663
498,6041355.760518828
500,6041630.380559861
502,6040978.882442327
504,6041595.78810989
506,6041119.67976189
508,6041365.424299014
510,6041071.198344188
512,6041739.54242439
514,6041387.819467912
516,6041357.70220459
518,6041393.167812725
520,6041218.210511548
522,6041133.473251889
524,6041422.399796743
526,6041269.074090698
528,6041132.102421873
530,6041302.810522712
532,6041389.241887198
534,6041036.329510817
536,6041213.927849331
538,6041352.7558355285
540,6041464.529113918
542,6041216.797882719
544,6041463.900915702
546,6041758.662093658
548,6041753.335466866
550,6041266.569760831
552,6041465.2015836295
554,6041784.469637742
556,6041690.325517785
558,6041447.324383636
560,6041264.018280623
562,6041575.168926358
564,6041589.5574018555
566,6041761.142393856
568,6040984.93642402
570,6041202.468840583
572,6041357.22080348
574,6041719.64997559
576,6041660.523222506
578,6041277.894002262
580,6041348.705891013
582,6041452.520859433
584,6041416.922535847
586,6041920.930474235
588,6041654.625367628
590,6041195.788012286
592,6041209.651203604
594,6041370.142867458
596,6041369.814023587
598,6041340.478605785
600,6041055.900732893
602,6041190.562260026
604,6041291.949578
606,6041257.171340382
608,6041685.059956448
610,6041666.662545873
612,6041258.355826704
614,6040969.816193873
616,6041022.914372778
618,6041037.7345199585
620,6040491.614166257
622,6040364.365993198
624,6041535.124551039
626,6041529.681194788
628,6040961.921812521
630,6041043.430966679
632,6041330.620043429
634,6041401.690060036
636,6042055.505224428
638,6043844.814038944
640,6043132.347750103
642,6041106.624656822
644,6041344.352357144
646,6041533.387368172
648,6041091.519118288
650,6041215.95296438
652,6041872.434943875
654,6042009.869974833
656,6040696.493051923
658,6040327.195626153
660,6040894.109537028
662,6039294.211517322
664,6040469.703028278
666,6043230.403533121
668,6041405.396901394
670,6041110.559157235
672,6041276.354673153
674,6040915.565833027
676,6041514.311405187
678,6041344.7059647925
680,6041150.193451218
682,6041410.309167267
684,6041560.06438006
686,6041447.918769948
688,6040955.81893887
690,6041315.875338912
692,6041350.307975553
694,6041850.281893436
696,6041497.367671758
698,6041199.302168769
700,6041453.64627868
702,6041828.693192877
704,6040860.42770877
706,6041675.622792104
708,6041571.681644926
710,6041346.454989626
712,6041546.234560798
714,6041858.824615336
716,6041142.5820534965
718,6041286.403162461
720,6041703.1207177285
722,6041807.585318082
724,6041329.8607438
726,6041296.890614847
728,6041527.288726995
730,6041723.792105585
732,6041192.330811199
734,6041150.1016538385
736,6041704.398114255
738,6041255.137810724
740,6041344.973276121
742,6041402.044472554
744,6041509.896928869
746,6041611.23472158
748,6041281.529689905
750,6041392.455248062
752,6040981.1977447625
754,6041295.389267499
756,6041239.4416478425
758,6041271.659960353
760,6041533.037164191
762,6033170.558480699
764,5997309.196911797
766,5919816.184365741
768,5789128.623488824
770,5591227.92157777
772,5331562.926099856
774,5030824.995786329
776,4699258.250554136
778,4346757.545140255
780,3987299.429810042
782,3631624.3336451664
784,3286378.269654552
786,2964560.482130975
788,2677357.907088312
790,2431812.978824052
792,2227005.630354121
794,2056991.6675400746
796,1912122.286436368
798,1783069.2196949078
800,1663500.214270693
802,1548744.6415391257
804,1440089.3704584274
806,1338355.7413583586
808,1246002.4351940232
810,1164641.9993123675
812,1094313.8934356393
814,1033315.1507154639
816,979276.3012057306
818,928884.3489745458
820,880151.1850921786
822,831067.2044299131
824,781134.7456778135
826,731197.4373941015
828,682133.9307999852
830,635157.065687494
832,590767.9318637582
834,549817.9262336656
836,511926.9827578021
838,476508.58827418834
840,442988.8091633684
842,410512.7161371145
844,378885.83903410326
846,347759.8550145639
848,317145.038704723
850,286997.5341464601
852,257814.11993689087
854,229635.74166079867
856,202883.51438950063
858,177548.2583061767
860,153963.78261275878
862,132580.8515415665
864,113288.53811543316
866,96239.40874515912
868,81413.00428997858
870,68826.20859127876
872,58133.754868965356
874,49160.33286656182
876,41666.7751322839
878,35497.06635140222
880,30295.018445045593
882,25695.68578759554
884,21591.37521759164
886,17852.922836174053
888,14389.809163301048
890,11160.697668091325
892,8122.388938503005
894,5540.658797514908
896,3560.8201047046186
898,2067.8082667675035
900,1036.1379326991748
902,389.7262820249188
904,91.05201843704549
906,33.85408597934234
908,10.175341117526877
910,0.4798427012002451
912,-3.482973111878331
914,2.393407046365594
916,-5.54246237681494
918,-0.29287613119402345
920,-2.3379566926154904
922,4.289920058427215
924,0.9442159283387628
926,-2.7336637591896857
928,1.0006701908683229
930,-1.3057717257606596
932,1.5404292547943992
934,4.001179039549514
936,-1.414773894536123
938,3.248233771030033
940,0.4896997775772239
942,3.269850699677664
944,0.8757233738836303
946,1.835094323646329
948,-1.5911823412967454
950,0.22756291881490442
952,1.4645588048001232
954,3.043621082643513
956,0.027056986644400358
958,-0.10659459427895207
960,-0.7023202398106899
962,-2.0064684457895754
964,-3.0020412361544704
966,-2.2327748367148637
968,-2.2451702637504916
970,3.087313082970052
972,-1.474238603491238
974,-1.3750943045639343
976,0.09099228775895851
978,-4.359327552662422
980,0.17173412192045567
982,0.5883557203648353
984,-0.6237451035931326
986,0.24693956783995888
988,-1.1733774690472267
990,1.089032408027303
992,0.5823660453244227
994,0.22070109661222787
996,-2.4283186811864717
998,-1.410528741235163
1000,-1.602076920989911
1002,-0.0723170684905614
1004,-2.2803875418149437
1006,-0.15982876153475076
1008,-1.1915084778267833
1010,-1.9937058314243845
1012,1.598653035792643
1014,-0.6487785841223528
1016,2.324849570691117
1018,0.7091701747258704
