wave,flux
336,2560.222930238359
338,4696.733101605893
340,7639.873807876136
342,11366.710048889363
344,15869.822507485966
346,21347.4645769756
348,28057.043258391266
350,36168.03485144913
352,46073.412675317515
354,58169.941432346335
356,72573.83492133085
358,89117.09551245485
360,107730.02027428515
362,128475.03564565272
364,151376.5076995375
366,176687.2059171558
368,205622.16891537554
370,239868.3736878948
372,281818.3655416579
374,336688.3929355653
376,414441.9666470585
378,528078.271578265
380,689938.3760151925
382,909167.4766668185
384,1190085.878785471
386,1532529.6001743642
388,1929464.6551522284
390,2368382.2653721455
392,2835203.0520986025
394,3312864.8898390117
396,3788369.963505898
398,4254312.382631499
400,4714685.2505482
402,5158757.10847967
404,5545383.279884568
406,5825584.159417645
408,5975073.770513068
410,6032449.811695534
412,6041789.074958891
414,6041599.111479462
416,6041368.680264928
418,6041330.379817897
420,6041293.274540044
422,6041348.411491576
424,6042034.580893331
426,6041344.7406649105
428,6041299.687752228
430,6041167.788841797
432,6041683.328137274
434,6041190.817822986
436,6041370.24905492
438,6041506.423349155
440,6041453.603875517
442,6041344.233534615
444,6041174.57995205
446,6041476.457912591
448,6041389.984551826
450,6041692.643137141
452,6041682.472132838
454,6041119.224303967
456,6041176.151065917
458,6041327.666016552
460,6041600.85647966
462,6041259.271726684
464,6041356.279912437
466,6041801.365596183
468,6041465.67266468
470,6041027.215030529
472,6041741.623093104
474,6041620.945560318
476,6041173.642198213
478,6041553.867552713
480,6041240.385432051
482,6041277.633247713
484,6041512.595023845
486,6041265.405630739
488,6041387.275074014
490,6041579.75877426
492,6041226.5773168355
494,6041292.144378414
496,6041293.130030435
498,6041341.350959411
500,6041520.632688612
502,6041344.986070369
504,6041398.884031304
506,6041262.221370941
508,6041187.384462986
510,6041079.443367428
512,6041425.474726286
514,6040897.465443567
516,6041091.50641164
518,6041523.212655389
520,6041631.578157437
522,6041266.264739396
524,6041218.5298348395
526,6041213.537192932
528,6041525.196935046
530,6041343.303142536
532,6041183.631947555
534,6041120.800722605
536,6041586.568186938
538,6041721.188448641
540,6041266.078817303
542,6041378.507210475
544,6041516.371183341
546,6040968.532351656
548,6041545.905074808
550,6041347.673147785
552,6041372.084192419
554,6041296.433217005
556,6040886.222600011
558,6041279.710545612
560,6041733.8137947135
562,6041400.932666847
564,6041747.614447568
566,6041533.20300964
568,6040801.127613164
570,6041797.392981748
572,6041463.740074597
574,6041471.4999642195
576,6041948.277796628
578,6041713.110857706
580,6041720.832942018
582,6041800.765484037
584,6041475.819549471
586,6041876.893586356
588,6041435.1607747665
590,6040666.428217066
592,6039900.247489439
594,6039143.289218006
596,6038401.374211926
598,6037680.323280354
600,6036985.9572324455
602,6036324.096877351
604,6035700.563024236
606,6035121.176482249
608,6034591.7580605475
610,6034118.128568287
612,6033706.10881462
614,6033361.519608706
616,6033090.1817597
618,6032897.916076755
620,6032790.54336903
622,6032773.884445675
624,6032853.760115851
626,6033035.991188711
628,6033326.39847341
630,6033730.802779105
632,6034255.02491495
634,6034904.885690102
636,6035686.205913715
638,6036604.806394946
640,6037666.507942949
642,6038877.13136688
644,6040242.497475896
646,6041696.385937471
648,6041643.734443194
650,6041401.212987671
652,6041705.776809805
654,6041397.689688907
656,6041151.2167918105
658,6041511.43121445
660,6041551.262288403
662,6041377.486709215
664,6041484.487439378
666,6041443.750089349
668,6041107.991048771
670,6041563.760999665
672,6041267.2062764475
674,6041163.483843256
676,6041536.128915831
678,6041346.24345349
680,6041150.289956291
682,6041410.314774397
684,6041560.064687422
686,6041447.9187860545
688,6040955.81893969
690,6041315.875338955
692,6041350.307975556
694,6041850.281893436
696,6041497.367671758
698,6041199.302168769
700,6041453.64627868
702,6041828.693192877
704,6040860.42770877
706,6041675.622792104
708,6041571.681644926
710,6041346.454989626
712,6041546.234560798
714,6041858.824615336
716,6041142.5820534965
718,6041286.403162461
720,6041703.1207177285
722,6041807.585318082
724,6041329.8607438
726,6041296.890614847
728,6041527.288726995
730,6041723.792105585
732,6041192.330811199
734,6041150.1016538385
736,6041704.398114255
738,6041255.137810724
740,6041344.973276121
742,6041402.044472554
744,6041509.896928869
746,6041611.23472158
748,6041281.529689905
750,6041392.455248062
752,6040981.1977447625
754,6041295.389267499
756,6041239.4416478425
758,6041271.659960353
760,6041533.037164191
762,6033170.558480699
764,5997309.196911797
766,5919816.184365741
768,5789128.623488824
770,5591227.92157777
772,5331562.926099856
774,5030824.995786329
776,4699258.250554136
778,4346757.545140255
780,3987299.429810042
782,3631624.3336451664
784,3286378.269654552
786,2964560.482130975
788,2677357.907088312
790,2431812.978824052
792,2227005.630354121
794,2056991.6675400746
796,1912122.286436368
798,1783069.2196949078
800,1663500.214270693
802,1548744.6415391257
804,1440089.3704584274
806,1338355.7413583586
808,1246002.4351940232
810,1164641.9993123675
812,1094313.8934356393
814,1033315.1507154639
816,979276.3012057306
818,928884.3489745458
820,880151.1850921786
822,831067.2044299131
824,781134.7456778135
826,731197.4373941015
828,682133.9307999852
830,635157.065687494
832,590767.9318637582
834,549817.9262336656
836,511926.9827578021
838,476508.58827418834
840,442988.8091633684
842,410512.7161371145
844,378885.83903410326
846,347759.8550145639
848,317145.038704723
850,286997.5341464601
852,257814.11993689087
854,229635.74166079867
856,202883.51438950063
858,177548.2583061767
860,153963.78261275878
862,132580.8515415665
864,113288.53811543316
866,96239.40874515912
868,81413.00428997858
870,68826.20859127876
872,58133.754868965356
874,49160.33286656182
876,41666.7751322839
878,35497.06635140222
880,30295.018445045593
882,25695.68578759554
884,21591.37521759164
886,17852.922836174053
888,14389.809163301048
890,11160.697668091325
892,8122.388938503005
894,5540.658797514908
896,3560.8201047046186
898,2067.8082667675035
900,1036.1379326991748
902,389.7262820249188
904,91.05201843704549
906,33.85408597934234
908,10.175341117526877
910,0.4798427012002451
912,-3.482973111878331
914,2.393407046365594
916,-5.54246237681494
918,-0.29287613119402345
920,-2.3379566926154904
922,4.289920058427215
924,0.9442159283387628
926,-2.7336637591896857
928,1.0006701908683229
930,-1.3057717257606596
932,1.5404292547943992
934,4.001179039549514
936,-1.414773894536123
938,3.248233771030033
940,0.4896997775772239
942,3.269850699677664
944,0.8757233738836303
946,1.835094323646329
948,-1.5911823412967454
950,0.22756291881490442
952,1.4645588048001232
954,3.043621082643513
956,0.027056986644400358
958,-0.10659459427895207
960,-0.7023202398106899
962,-2.0064684457895754
964,-3.0020412361544704
966,-2.2327748367148637
968,-2.2451702637504916
970,3.087313082970052
972,-1.474238603491238
974,-1.3750943045639343
976,0.09099228775895851
978,-4.359327552662422
980,0.17173412192045567
982,0.5883557203648353
984,-0.6237451035931326
986,0.24693956783995888
988,-1.1733774690472267
990,1.089032408027303
992,0.5823660453244227
994,0.22070109661222787
996,-2.4283186811864717
998,-1.410528741235163
1000,-1.602076920989911
1002,-0.0723170684905614
1004,-2.2803875418149437
1006,-0.15982876153475076
1008,-1.1915084778267833
1010,-1.9937058314243845
1012,1.598653035792643
1014,-0.6487785841223528
1016,2.324849570691117
1018,0.7091701747258704
