wave,flux
336,397.71527056323475
338,805.1074527407869
340,1498.2610901280946
342,2483.5995675197196
344,3743.4915823082574
346,5312.249910317465
348,7247.1240045400355
350,9486.648480611279
352,11961.018715730166
354,14742.800268657998
356,17910.997255685004
358,21558.281333181785
360,25791.90996575012
362,30605.183142680824
364,35822.48878829346
366,41429.07468568429
368,47755.48115407768
370,55056.80312989737
372,63484.084773490016
374,73830.70568122921
376,87893.51499837177
378,107809.90733672195
380,135366.08790372306
382,172201.93527315787
384,221059.43249854792
386,285851.30039571115
388,371405.1772693688
390,481354.69921522104
392,616015.6212010712
394,769906.0549152861
396,934156.9957260891
398,1099720.7298304725
400,1263065.5368822413
402,1423991.3832770574
404,1584347.3985902155
406,1744395.5668800997
408,1902929.0579946456
410,2054102.9185288665
412,2190191.265941666
414,2305185.171734494
416,2399465.8891877104
418,2480139.965359759
420,2558658.1469598673
422,2645331.8665075526
424,2745651.2374500544
426,2859268.386848197
428,2978997.983598565
430,3093341.972813518
432,3190914.8941743146
434,3264843.8529184186
436,3316370.145244206
438,3356164.9251751616
440,3398808.1057251906
442,3454696.3578706146
444,3530251.707683513
446,3621934.5818422036
448,3725364.658541231
450,3836045.9355664602
452,3954616.1028632442
454,4084712.748429261
456,4230047.787607184
458,4391037.875942551
460,4562293.647012347
462,4733499.053690611
464,4894080.723923741
466,5037098.889446724
468,5160334.95587593
470,5271194.743386499
472,5379550.03893131
474,5490900.25570159
476,5604753.212136877
478,5719321.786274924
480,5824819.459532573
482,5910100.512712152
484,5970937.225284554
486,6010488.475512634
488,6031610.928772737
490,6040166.659962851
492,6041590.2970237415
494,6041433.931904644
496,6041356.8425151175
498,6041285.15562552
500,6041671.347914184
502,6041632.230502121
504,6041252.865054931
506,6041275.770227477
508,6040974.651726523
510,6041423.657247709
512,6041665.457756641
514,6041882.903445929
516,6041558.914352106
518,6040771.539905457
520,6040983.572515593
522,6041566.414764692
524,6041646.627606299
526,6041400.32569576
528,6041860.268591027
530,6041488.928221582
532,6042040.285396418
534,6041103.408547464
536,6041229.550356973
538,6041461.7403491875
540,6041694.919951246
542,6041246.90472795
544,6041125.364166578
546,6041611.412849822
548,6041677.543398229
550,6041672.685877143
552,6041164.58356567
554,6041215.71331267
556,6041701.780477661
558,6041808.117698256
560,6041637.350350908
562,6041540.126224506
564,6041555.0496017495
566,6041489.751661352
568,6041279.6621525865
570,6041596.438350256
572,6041151.9609361775
574,6041305.3433945775
576,6041344.797179662
578,6040880.819880441
580,6041314.16604331
582,6041769.201757496
584,6041353.152623228
586,6041647.022183504
588,6041324.320599189
590,6041012.2294546105
592,6041523.636787185
594,6041860.8093028255
596,6041477.245814979
598,6041319.3113337485
600,6041387.95945534
602,6041722.485722136
604,6041493.300008783
606,6040978.028739413
608,6041355.492809057
610,6041476.266558375
612,6041423.334035787
614,6041460.07259506
616,6041662.279997451
618,6042164.852930361
620,6041306.098107217
622,6040502.033530514
624,6042052.275876595
626,6042377.0739314025
628,6041607.467526465
630,6041787.57300318
632,6043458.418892908
634,6042848.038478896
636,6040998.657319733
638,6042163.393434078
640,6042316.845984607
642,6041244.203795457
644,6041441.666978327
646,6040817.978471942
648,6040183.126506671
650,6041822.08728524
652,6043617.037503516
654,6042534.4002099
656,6038594.2237468865
658,6041883.4071974605
660,6041817.74475135
662,6041358.191412507
664,6041480.745807378
666,6041443.489862421
668,6041107.978991076
670,6041563.76069656
672,6041267.206284928
674,6041163.483844971
676,6041536.128915982
678,6041346.2434535
680,6041150.289956292
682,6041410.314774397
684,6041560.064687422
686,6041447.9187860545
688,6040955.81893969
690,6041315.875338955
692,6041350.307975556
694,6041850.281893436
696,6041497.367671758
698,6041199.302168769
700,6041453.64627868
702,6041828.693192877
704,6040860.42770877
706,6041675.622792104
708,6041571.681644926
710,6041346.454989626
712,6041546.234560798
714,6041858.824615336
716,6041142.5820534965
718,6041286.403162461
720,6041703.1207177285
722,6041807.585318082
724,6041329.8607438
726,6041296.890614847
728,6041527.288726995
730,6041723.792105585
732,6041192.330811199
734,6041150.1016538385
736,6041704.398114255
738,6041255.137810724
740,6041344.973276121
742,6041402.044472554
744,6041509.896928869
746,6041611.23472158
748,6041281.529689905
750,6041392.455248062
752,6040981.1977447625
754,6041295.389267499
756,6041239.4416478425
758,6041271.659960353
760,6041533.037164191
762,6033170.558480699
764,5997309.196911797
766,5919816.184365741
768,5789128.623488824
770,5591227.92157777
772,5331562.926099856
774,5030824.995786329
776,4699258.250554136
778,4346757.545140255
780,3987299.429810042
782,3631624.3336451664
784,3286378.269654552
786,2964560.482130975
788,2677357.907088312
790,2431812.978824052
792,2227005.630354121
794,2056991.6675400746
796,1912122.286436368
798,1783069.2196949078
800,1663500.214270693
802,1548744.6415391257
804,1440089.3704584274
806,1338355.7413583586
808,1246002.4351940232
810,1164641.9993123675
812,1094313.8934356393
814,1033315.1507154639
816,979276.3012057306
818,928884.3489745458
820,880151.1850921786
822,831067.2044299131
824,781134.7456778135
826,731197.4373941015
828,682133.9307999852
830,635157.065687494
832,590767.9318637582
834,549817.9262336656
836,511926.9827578021
838,476508.58827418834
840,442988.8091633684
842,410512.7161371145
844,378885.83903410326
846,347759.8550145639
848,317145.038704723
850,286997.5341464601
852,257814.11993689087
854,229635.74166079867
856,202883.51438950063
858,177548.2583061767
860,153963.78261275878
862,132580.8515415665
864,113288.53811543316
866,96239.40874515912
868,81413.00428997858
870,68826.20859127876
872,58133.754868965356
874,49160.33286656182
876,41666.7751322839
878,35497.06635140222
880,30295.018445045593
882,25695.68578759554
884,21591.37521759164
886,17852.922836174053
888,14389.809163301048
890,11160.697668091325
892,8122.388938503005
894,5540.658797514908
896,3560.8201047046186
898,2067.8082667675035
900,1036.1379326991748
902,389.7262820249188
904,91.05201843704549
906,33.85408597934234
908,10.175341117526877
910,0.4798427012002451
912,-3.482973111878331
914,2.393407046365594
916,-5.54246237681494
918,-0.29287613119402345
920,-2.3379566926154904
922,4.289920058427215
924,0.9442159283387628
926,-2.7336637591896857
928,1.0006701908683229
930,-1.3057717257606596
932,1.5404292547943992
934,4.001179039549514
936,-1.414773894536123
938,3.248233771030033
940,0.4896997775772239
942,3.269850699677664
944,0.8757233738836303
946,1.835094323646329
948,-1.5911823412967454
950,0.22756291881490442
952,1.4645588048001232
954,3.043621082643513
956,0.027056986644400358
958,-0.10659459427895207
960,-0.7023202398106899
962,-2.0064684457895754
964,-3.0020412361544704
966,-2.2327748367148637
968,-2.2451702637504916
970,3.087313082970052
972,-1.474238603491238
974,-1.3750943045639343
976,0.09099228775895851
978,-4.359327552662422
980,0.17173412192045567
982,0.5883557203648353
984,-0.6237451035931326
986,0.24693956783995888
988,-1.1733774690472267
990,1.089032408027303
992,0.5823660453244227
994,0.22070109661222787
996,-2.4283186811864717
998,-1.410528741235163
1000,-1.602076920989911
1002,-0.0723170684905614
1004,-2.2803875418149437
1006,-0.15982876153475076
1008,-1.1915084778267833
1010,-1.9937058314243845
1012,1.598653035792643
1014,-0.6487785841223528
1016,2.324849570691117
1018,0.7091701747258704
