wave,flux
336,1.4475646696327882
338,0.15388118481053473
340,-5.348049687361572
342,1.6126348607990264
344,-1.2467387789766275
346,-0.6751455695902108
348,-0.05078768750111681
350,-0.7006552517645924
352,-2.246216256814213
354,1.0232380736704156
356,10.151747188208457
358,491.53327049770974
360,2486.3640568734727
362,6699.389564765528
364,12639.488799636649
366,19244.421965899906
368,25813.188747885608
370,32120.897983777744
372,38537.902821259464
374,45324.813420859806
376,52478.73972236054
378,60049.49164600283
380,68615.28453421537
382,78964.44289570431
384,91524.34772584234
386,106393.85164346066
388,122911.77530655189
390,139944.85163846254
392,157638.37231325192
394,176470.15790265845
396,196347.4885904607
398,215979.33108257872
400,235085.68852928377
402,254037.0478896948
404,274226.5732998627
406,296967.6236231429
408,324036.2504132229
410,357502.02980704955
412,399147.06949768064
414,451499.0852243495
416,520942.4038074006
418,622008.5033187754
420,785397.5122778993
422,1057584.6742409791
424,1493464.4638672546
426,2135995.8427136983
428,2969583.786099603
430,3882986.913162126
432,4735583.553351134
434,5389655.842038913
436,5784490.066229567
438,5976401.812326985
440,6036757.033072731
442,6041522.20330885
444,6041592.400065848
446,6041330.535790182
448,6041522.383373188
450,6041053.956581661
452,6041400.612646257
454,6041309.989609442
456,6041552.232383664
458,6041392.82555005
460,6041336.815491982
462,6042035.248186477
464,6041233.404265986
466,6041447.6287549995
468,6041471.676398483
470,6040898.882211776
472,6041544.163365729
474,6041326.274225854
476,6041625.069481719
478,6041231.996378768
480,6041149.3272435665
482,6041584.693741921
484,6041581.042302956
486,6041490.313111666
488,6041486.814151568
490,6041417.157258635
492,6041146.839645453
494,6041829.023677791
496,6041411.812695964
498,6041526.862566833
500,6040927.131619337
502,6041324.400718638
504,6041358.559402169
506,6041182.575263296
508,6041406.885605015
510,6041629.574814034
512,6041409.986212972
514,6041468.428874882
516,6041248.42055987
518,6041576.811859921
520,6041334.078094211
522,6041590.785119322
524,6041600.620933806
526,6041473.334890792
528,6041283.507025681
530,6041203.806191738
532,6041515.045697371
534,6041281.809966611
536,6041508.586329314
538,6041495.127270283
540,6041551.126455271
542,6041956.873246868
544,6041594.460514074
546,6041253.49819887
548,6041485.709746396
550,6041376.549183083
552,6041627.24850813
554,6041434.130320101
556,6041554.3095344715
558,6041391.656960168
560,6041415.904950247
562,6041669.013701385
564,6041135.1468621325
566,6040794.843166511
568,6041341.791303898
570,6040720.005989989
572,6041438.068104089
574,6041311.107067064
576,6041718.010892592
578,6041261.722116562
580,6040926.959475199
582,6041523.574015516
584,6041580.895223725
586,6041211.79254137
588,6041060.682713468
590,6041412.550971484
592,6041298.755565258
594,6041133.871916622
596,6041417.511152456
598,6041427.535798549
600,6041151.214130019
602,6041197.5005413955
604,6041228.126340085
606,6041019.697346649
608,6041074.668599435
610,6041432.165005486
612,6041788.75218633
614,6041720.991949032
616,6041145.507726337
618,6040727.885879133
620,6041165.357898244
622,6041504.669313055
624,6040813.549542292
626,6041503.432887654
628,6042528.9539351985
630,6041958.088319177
632,6040018.357328998
634,6039825.359151734
636,6041334.959405556
638,6041789.948865019
640,6041991.121201432
642,6042264.148437562
644,6041882.257762723
646,6040088.185154826
648,6038913.098266429
650,6040684.978564761
652,6042132.662191377
654,6042389.328641456
656,6043038.748003755
658,6042712.983236793
660,6041345.559325595
662,6041144.716770623
664,6041209.447667658
666,6040564.94808951
668,6041212.685681293
670,6042691.592844039
672,6042573.169123776
674,6041323.153097513
676,6040229.845486898
678,6040144.974330794
680,6040881.633810493
682,6041441.377646968
684,6041657.688574308
686,6041452.578729611
688,6040956.055910174
690,6041315.887351145
692,6041350.308615942
694,6041850.281932589
696,6041497.367674709
698,6041199.302169037
700,6041453.646278707
702,6041828.69319288
704,6040860.42770877
706,6041675.622792104
708,6041571.681644926
710,6041346.454989626
712,6041546.234560798
714,6041858.824615336
716,6041142.5820534965
718,6041286.403162461
720,6041703.1207177285
722,6041807.585318082
724,6041329.8607438
726,6041296.890614847
728,6041527.288726995
730,6041723.792105585
732,6041192.330811199
734,6041150.1016538385
736,6041704.398114255
738,6041255.137810724
740,6041344.973276121
742,6041402.044472554
744,6041509.896928869
746,6041611.23472158
748,6041281.529689905
750,6041392.455248062
752,6040981.1977447625
754,6041295.389267499
756,6041239.4416478425
758,6041271.659960353
760,6041533.037164191
762,6033170.558480699
764,5997309.196911797
766,5919816.184365741
768,5789128.623488824
770,5591227.92157777
772,5331562.926099856
774,5030824.995786329
776,4699258.250554136
778,4346757.545140255
780,3987299.429810042
782,3631624.3336451664
784,3286378.269654552
786,2964560.482130975
788,2677357.907088312
790,2431812.978824052
792,2227005.630354121
794,2056991.6675400746
796,1912122.286436368
798,1783069.2196949078
800,1663500.214270693
802,1548744.6415391257
804,1440089.3704584274
806,1338355.7413583586
808,1246002.4351940232
810,1164641.9993123675
812,1094313.8934356393
814,1033315.1507154639
816,979276.3012057306
818,928884.3489745458
820,880151.1850921786
822,831067.2044299131
824,781134.7456778135
826,731197.4373941015
828,682133.9307999852
830,635157.065687494
832,590767.9318637582
834,549817.9262336656
836,511926.9827578021
838,476508.58827418834
840,442988.8091633684
842,410512.7161371145
844,378885.83903410326
846,347759.8550145639
848,317145.038704723
850,286997.5341464601
852,257814.11993689087
854,229635.74166079867
856,202883.51438950063
858,177548.2583061767
860,153963.78261275878
862,132580.8515415665
864,113288.53811543316
866,96239.40874515912
868,81413.00428997858
870,68826.20859127876
872,58133.754868965356
874,49160.33286656182
876,41666.7751322839
878,35497.06635140222
880,30295.018445045593
882,25695.68578759554
884,21591.37521759164
886,17852.922836174053
888,14389.809163301048
890,11160.697668091325
892,8122.388938503005
894,5540.658797514908
896,3560.8201047046186
898,2067.8082667675035
900,1036.1379326991748
902,389.7262820249188
904,91.05201843704549
906,33.85408597934234
908,10.175341117526877
910,0.4798427012002451
912,-3.482973111878331
914,2.393407046365594
916,-5.54246237681494
918,-0.29287613119402345
920,-2.3379566926154904
922,4.289920058427215
924,0.9442159283387628
926,-2.7336637591896857
928,1.0006701908683229
930,-1.3057717257606596
932,1.5404292547943992
934,4.001179039549514
936,-1.414773894536123
938,3.248233771030033
940,0.4896997775772239
942,3.269850699677664
944,0.8757233738836303
946,1.835094323646329
948,-1.5911823412967454
950,0.22756291881490442
952,1.4645588048001232
954,3.043621082643513
956,0.027056986644400358
958,-0.10659459427895207
960,-0.7023202398106899
962,-2.0064684457895754
964,-3.0020412361544704
966,-2.2327748367148637
968,-2.2451702637504916
970,3.087313082970052
972,-1.474238603491238
974,-1.3750943045639343
976,0.09099228775895851
978,-4.359327552662422
980,0.17173412192045567
982,0.5883557203648353
984,-0.6237451035931326
986,0.24693956783995888
988,-1.1733774690472267
990,1.089032408027303
992,0.5823660453244227
994,0.22070109661222787
996,-2.4283186811864717
998,-1.410528741235163
1000,-1.602076920989911
1002,-0.0723170684905614
1004,-2.2803875418149437
1006,-0.15982876153475076
1008,-1.1915084778267833
1010,-1.9937058314243845
1012,1.598653035792643
1014,-0.6487785841223528
1016,2.324849570691117
1018,0.7091701747258704
