wave,flux
336,4368.260423145513
338,8281.312395554252
340,12595.574556024694
342,19325.377097088767
344,28381.067612683753
346,38070.09848127672
348,48634.564841656866
350,58758.740588523186
352,68041.33999771172
354,78950.302792348
356,92463.41999578864
358,108419.51127469953
360,127042.28847052203
362,147455.9709183944
364,168474.04624785573
366,190112.72085361322
368,213256.36982536758
370,238540.11768293663
372,267464.36670189654
374,303346.8664553737
376,355933.9227245887
378,450631.4821698287
380,635280.0982206854
382,970588.905290788
384,1493121.9984369332
386,2169018.883560542
388,2895984.3917232407
390,3579087.887695787
392,4211573.719112817
394,4821143.9573819
396,5373891.19661948
398,5774006.320597049
400,5976015.476321081
402,6038122.073999927
404,6041148.552939007
406,6041274.121565297
408,6041446.020872266
410,6039553.865608026
412,6006472.536028597
414,5916147.117728235
416,5775468.562980671
418,5638780.075970417
420,5594382.069132325
422,5656256.432364554
424,5789812.405440591
426,5919091.809483569
428,5999928.284828668
430,6035323.960098172
432,6041404.420663159
434,6040937.522382557
436,6041429.389025233
438,6041282.431162555
440,6041756.105587753
442,6041204.681323663
444,6039227.506323734
446,6034303.730068196
448,6028471.389114796
450,6022941.145483112
452,6018327.477102472
454,6018347.4686344955
456,6017789.926324501
458,5998025.180509217
460,5943355.223216356
462,5847278.705877011
464,5701680.042146263
466,5526217.772220876
468,5363718.425264388
470,5261551.573448206
472,5239383.305092012
474,5302452.572454313
476,5437036.243673509
478,5606801.507359768
480,5766626.702708431
482,5889813.95380612
484,5974128.7363282405
486,6021276.43470478
488,6039897.485299801
490,6041772.8244418865
492,6040946.19514173
494,6041420.127462963
496,6041124.463849872
498,6041254.353467754
500,6041222.770070321
502,6041303.164432258
504,6041735.554090138
506,6041920.176347156
508,6041411.713936001
510,6041405.502131807
512,6041397.692963965
514,6041226.809931178
516,6041691.048042128
518,6041519.175383139
520,6041232.371175859
522,6041728.049407855
524,6041258.828486233
526,6041202.577578472
528,6041597.421937132
530,6041808.466547328
532,6041578.7418286
534,6041540.126168885
536,6041565.843577634
538,6041304.558449383
540,6041431.3786319895
542,6041426.629221641
544,6041648.520562457
546,6041071.348496386
548,6041034.888097142
550,6041167.095626831
552,6041256.567956844
554,6041532.673053095
556,6041540.414852492
558,6041482.730607692
560,6041274.285800836
562,6041239.615412912
564,6041388.907029841
566,6041238.50075303
568,6042012.324617324
570,6041380.415718174
572,6041329.249079497
574,6041759.832036451
576,6041146.244017529
578,6041163.218396665
580,6041290.6154488195
582,6041034.992509797
584,6041208.886857389
586,6041304.636304498
588,6041519.350814272
590,6041263.399203799
592,6041116.23227016
594,6041426.027230536
596,6041616.157901964
598,6041296.886927142
600,6041210.719545387
602,6041177.532623562
604,6041196.2583896415
606,6041516.19288673
608,6041977.616520276
610,6041791.750214082
612,6041685.419424599
614,6041674.463429819
616,6041334.897121573
618,6041534.619308148
620,6041983.626147005
622,6042224.08306168
624,6042353.38404542
626,6042939.95318276
628,6043002.53256857
630,6041989.755159065
632,6041120.199170367
634,6041754.262670302
636,6042938.084257931
638,6042280.568721133
640,6040117.569615311
642,6038940.913456485
644,6040808.987474219
646,6042959.882691377
648,6042292.1815902805
650,6038491.055870138
652,6038283.527425506
654,6041853.460204308
656,6043466.217072564
658,6042545.278365368
660,6040930.651354433
662,6041140.163176287
664,6041452.944081541
666,6040284.427467075
668,6040510.119781785
670,6042078.99975671
672,6042448.608854309
674,6042285.905484163
676,6042432.268259112
678,6041790.876186098
680,6040139.063077344
682,6038396.684777504
684,6038131.844151604
686,6039903.666556399
688,6040095.71522665
690,6037982.609272
692,6038897.564272664
694,6042309.390704853
696,6042277.240153426
698,6040689.802827286
700,6042610.495123772
702,6044516.67930275
704,6041977.813065903
706,6038792.40606238
708,6038437.893843837
710,6038522.717754606
712,6037552.278942039
714,6037691.9361936515
716,6039819.981813882
718,6042006.064585265
720,6042973.214205891
722,6042777.5746870665
724,6041897.458453206
726,6041242.149079553
728,6041499.305133718
730,6041723.573126326
732,6041192.581714913
734,6041150.140613704
736,6041704.40147439
738,6041255.13792392
740,6041344.973255374
742,6041402.044468514
744,6041509.896928537
746,6041611.234721579
748,6041281.529689908
750,6041392.455248062
752,6040981.1977447625
754,6041295.389267499
756,6041239.4416478425
758,6041271.659960353
760,6041533.037164191
762,6033170.558480699
764,5997309.196911797
766,5919816.184365741
768,5789128.623488824
770,5591227.92157777
772,5331562.926099856
774,5030824.995786329
776,4699258.250554136
778,4346757.545140255
780,3987299.429810042
782,3631624.3336451664
784,3286378.269654552
786,2964560.482130975
788,2677357.907088312
790,2431812.978824052
792,2227005.630354121
794,2056991.6675400746
796,1912122.286436368
798,1783069.2196949078
800,1663500.214270693
802,1548744.6415391257
804,1440089.3704584274
806,1338355.7413583586
808,1246002.4351940232
810,1164641.9993123675
812,1094313.8934356393
814,1033315.1507154639
816,979276.3012057306
818,928884.3489745458
820,880151.1850921786
822,831067.2044299131
824,781134.7456778135
826,731197.4373941015
828,682133.9307999852
830,635157.065687494
832,590767.9318637582
834,549817.9262336656
836,511926.9827578021
838,476508.58827418834
840,442988.8091633684
842,410512.7161371145
844,378885.83903410326
846,347759.8550145639
848,317145.038704723
850,286997.5341464601
852,257814.11993689087
854,229635.74166079867
856,202883.51438950063
858,177548.2583061767
860,153963.78261275878
862,132580.8515415665
864,113288.53811543316
866,96239.40874515912
868,81413.00428997858
870,68826.20859127876
872,58133.754868965356
874,49160.33286656182
876,41666.7751322839
878,35497.06635140222
880,30295.018445045593
882,25695.68578759554
884,21591.37521759164
886,17852.922836174053
888,14389.809163301048
890,11160.697668091325
892,8122.388938503005
894,5540.658797514908
896,3560.8201047046186
898,2067.8082667675035
900,1036.1379326991748
902,389.7262820249188
904,91.05201843704549
906,33.85408597934234
908,10.175341117526877
910,0.4798427012002451
912,-3.482973111878331
914,2.393407046365594
916,-5.54246237681494
918,-0.29287613119402345
920,-2.3379566926154904
922,4.289920058427215
924,0.9442159283387628
926,-2.7336637591896857
928,1.0006701908683229
930,-1.3057717257606596
932,1.5404292547943992
934,4.001179039549514
936,-1.414773894536123
938,3.248233771030033
940,0.4896997775772239
942,3.269850699677664
944,0.8757233738836303
946,1.835094323646329
948,-1.5911823412967454
950,0.22756291881490442
952,1.4645588048001232
954,3.043621082643513
956,0.027056986644400358
958,-0.10659459427895207
960,-0.7023202398106899
962,-2.0064684457895754
964,-3.0020412361544704
966,-2.2327748367148637
968,-2.2451702637504916
970,3.087313082970052
972,-1.474238603491238
974,-1.3750943045639343
976,0.09099228775895851
978,-4.359327552662422
980,0.17173412192045567
982,0.5883557203648353
984,-0.6237451035931326
986,0.24693956783995888
988,-1.1733774690472267
990,1.089032408027303
992,0.5823660453244227
994,0.22070109661222787
996,-2.4283186811864717
998,-1.410528741235163
1000,-1.602076920989911
1002,-0.0723170684905614
1004,-2.2803875418149437
1006,-0.15982876153475076
1008,-1.1915084778267833
1010,-1.9937058314243845
1012,1.598653035792643
1014,-0.6487785841223528
1016,2.324849570691117
1018,0.7091701747258704
