wave,flux
336,0.45361747303459515
338,-3.3529007203633054
340,-6.3222519306281235
342,-1.7975676359370247
344,-0.355799458918695
346,-0.21549679487376455
348,-2.0732338540369404
350,2.139809278997715
352,2.3299425393899056
354,3.97231225149464
356,25.497507337154953
358,572.6932580044137
360,2534.8804291153524
362,6236.560206253542
364,11051.809732828471
366,15991.1054805447
368,21029.06197076415
370,26750.863343880555
372,33205.66922068757
374,40540.69626572369
376,48573.13122243142
378,57175.26874319565
380,66601.3554978966
382,77857.49777619477
384,91002.21090994586
386,105737.73994606116
388,120989.83873311213
390,136556.7696582427
392,154020.69409645326
394,174075.130553525
396,195483.995949065
398,214816.7281724057
400,231630.78869308217
402,247206.81167168106
404,264119.0974715328
406,283878.2167160046
408,307881.79571205797
410,337693.17009497347
412,374716.0449562037
414,420981.9811238588
416,482411.4539271759
418,574482.0309617511
420,727526.1257731561
422,984011.7428300274
424,1389004.810866186
426,1968512.6935109608
428,2710614.8144658175
430,3550430.0178059386
432,4373670.377310792
434,5072168.014131862
436,5571563.972745992
438,5859773.973290452
440,5993806.972357317
442,6037045.315032822
444,6041233.666090025
446,6041448.737245875
448,6041361.747160697
450,6041590.697719101
452,6041267.237883228
454,6041153.329169095
456,6041868.613248998
458,6040928.184528657
460,6041465.089092573
462,6040983.641774486
464,6041567.119850841
466,6041121.239470915
468,6041573.21945303
470,6041351.085642558
472,6041174.593108209
474,6041178.935050255
476,6041928.215454111
478,6041412.72045362
480,6041207.606927612
482,6041685.246727621
484,6041305.88586069
486,6041567.728949004
488,6041613.030508917
490,6041329.395221007
492,6041215.676164496
494,6041275.37652454
496,6041585.484239141
498,6041555.024169376
500,6041399.682692861
502,6041289.383020143
504,6041308.548381277
506,6041760.26681238
508,6041249.022444665
510,6041246.276253377
512,6041805.238060087
514,6041258.662887696
516,6041599.978980421
518,6041479.971685192
520,6041377.281480266
522,6041405.834305251
524,6041701.565485743
526,6041371.233122018
528,6041000.400062141
530,6041353.94227328
532,6041436.51419806
534,6042026.8578392975
536,6041376.564668112
538,6041157.157153458
540,6041369.231857948
542,6041815.49941962
544,6041482.575602342
546,6041264.579561325
548,6041134.134979504
550,6041384.341943911
552,6041432.930435364
554,6041556.774531272
556,6041428.516446778
558,6041469.242022779
560,6041544.329076239
562,6041549.0059626065
564,6041381.897419292
566,6040932.872074088
568,6041720.054615881
570,6041222.490947289
572,6041258.163180535
574,6041586.421313596
576,6041174.663323604
578,6041203.517993792
580,6041410.568756708
582,6041195.897028318
584,6041267.876362037
586,6041638.865186156
588,6041420.263454494
590,6041421.522162025
592,6041794.863576911
594,6041574.363502132
596,6041258.3706840025
598,6041806.13385035
600,6041068.407107611
602,6040883.020352381
604,6041391.815362383
606,6041514.306842202
608,6041151.933390994
610,6040996.613848926
612,6041262.025265242
614,6041418.421111732
616,6041113.968696343
618,6041219.186008147
620,6042130.587658414
622,6042027.69028109
624,6039789.743033655
626,6039867.8323010905
628,6041058.27303937
630,6041176.250789051
632,6041081.762618765
634,6041293.344870184
636,6041607.623324767
638,6041617.2038721675
640,6041921.612072171
642,6042104.382473682
644,6041213.061165333
646,6039593.5961797405
648,6038559.366979903
650,6039318.5001646895
652,6040970.526876374
654,6041735.368102237
656,6040312.500045228
658,6039143.971342248
660,6039868.87024383
662,6041683.887161177
664,6042769.895490968
666,6041790.755933668
668,6039443.800534473
670,6037746.643202781
672,6038819.082408727
674,6040448.949369426
676,6040521.833681799
678,6040204.200459729
680,6040391.932110973
682,6041185.160603394
684,6041585.675701726
686,6040831.740502736
688,6040494.667690756
690,6041234.5016929
692,6041348.4753219
694,6041850.169845124
696,6041497.359229192
698,6041199.301400759
700,6041453.646201438
702,6041828.6931849085
704,6040860.427707962
706,6041675.622792025
708,6041571.6816449175
710,6041346.454989626
712,6041546.234560798
714,6041858.824615336
716,6041142.5820534965
718,6041286.403162461
720,6041703.1207177285
722,6041807.585318082
724,6041329.8607438
726,6041296.890614847
728,6041527.288726995
730,6041723.792105585
732,6041192.330811199
734,6041150.1016538385
736,6041704.398114255
738,6041255.137810724
740,6041344.973276121
742,6041402.044472554
744,6041509.896928869
746,6041611.23472158
748,6041281.529689905
750,6041392.455248062
752,6040981.1977447625
754,6041295.389267499
756,6041239.4416478425
758,6041271.659960353
760,6041533.037164191
762,6033170.558480699
764,5997309.196911797
766,5919816.184365741
768,5789128.623488824
770,5591227.92157777
772,5331562.926099856
774,5030824.995786329
776,4699258.250554136
778,4346757.545140255
780,3987299.429810042
782,3631624.3336451664
784,3286378.269654552
786,2964560.482130975
788,2677357.907088312
790,2431812.978824052
792,2227005.630354121
794,2056991.6675400746
796,1912122.286436368
798,1783069.2196949078
800,1663500.214270693
802,1548744.6415391257
804,1440089.3704584274
806,1338355.7413583586
808,1246002.4351940232
810,1164641.9993123675
812,1094313.8934356393
814,1033315.1507154639
816,979276.3012057306
818,928884.3489745458
820,880151.1850921786
822,831067.2044299131
824,781134.7456778135
826,731197.4373941015
828,682133.9307999852
830,635157.065687494
832,590767.9318637582
834,549817.9262336656
836,511926.9827578021
838,476508.58827418834
840,442988.8091633684
842,410512.7161371145
844,378885.83903410326
846,347759.8550145639
848,317145.038704723
850,286997.5341464601
852,257814.11993689087
854,229635.74166079867
856,202883.51438950063
858,177548.2583061767
860,153963.78261275878
862,132580.8515415665
864,113288.53811543316
866,96239.40874515912
868,81413.00428997858
870,68826.20859127876
872,58133.754868965356
874,49160.33286656182
876,41666.7751322839
878,35497.06635140222
880,30295.018445045593
882,25695.68578759554
884,21591.37521759164
886,17852.922836174053
888,14389.809163301048
890,11160.697668091325
892,8122.388938503005
894,5540.658797514908
896,3560.8201047046186
898,2067.8082667675035
900,1036.1379326991748
902,389.7262820249188
904,91.05201843704549
906,33.85408597934234
908,10.175341117526877
910,0.4798427012002451
912,-3.482973111878331
914,2.393407046365594
916,-5.54246237681494
918,-0.29287613119402345
920,-2.3379566926154904
922,4.289920058427215
924,0.9442159283387628
926,-2.7336637591896857
928,1.0006701908683229
930,-1.3057717257606596
932,1.5404292547943992
934,4.001179039549514
936,-1.414773894536123
938,3.248233771030033
940,0.4896997775772239
942,3.269850699677664
944,0.8757233738836303
946,1.835094323646329
948,-1.5911823412967454
950,0.22756291881490442
952,1.4645588048001232
954,3.043621082643513
956,0.027056986644400358
958,-0.10659459427895207
960,-0.7023202398106899
962,-2.0064684457895754
964,-3.0020412361544704
966,-2.2327748367148637
968,-2.2451702637504916
970,3.087313082970052
972,-1.474238603491238
974,-1.3750943045639343
976,0.09099228775895851
978,-4.359327552662422
980,0.17173412192045567
982,0.5883557203648353
984,-0.6237451035931326
986,0.24693956783995888
988,-1.1733774690472267
990,1.089032408027303
992,0.5823660453244227
994,0.22070109661222787
996,-2.4283186811864717
998,-1.410528741235163
1000,-1.602076920989911
1002,-0.0723170684905614
1004,-2.2803875418149437
1006,-0.15982876153475076
1008,-1.1915084778267833
1010,-1.9937058314243845
1012,1.598653035792643
1014,-0.6487785841223528
1016,2.324849570691117
1018,0.7091701747258704
