wave,flux
336,291.71472679342685
338,636.3670295899974
340,1246.0084605803672
342,2150.739730111116
344,3317.975824376924
346,4754.038115781815
348,6446.064741664469
350,8337.176619468908
352,10471.220050542493
354,13028.577107621279
356,16062.233472371698
358,19683.33332615473
360,24017.444384362312
362,29148.288151477187
364,34890.89020024929
366,41322.80508980585
368,48686.196590296284
370,57133.21182029278
372,66858.98506885894
374,78569.93790132472
376,93809.6025711119
378,114414.00145532073
380,141696.74644672056
382,176943.23525949585
384,223186.9194356398
386,285403.7960898455
388,369208.78013758425
390,478688.01573233085
392,615658.9281496691
394,774941.0705861384
396,947027.2101358369
398,1120405.2936121183
400,1288460.6213477342
402,1447485.1693540418
404,1597686.0487616586
406,1739556.5140390447
408,1876098.6939101769
410,2011084.757169646
412,2147102.3151071724
414,2287024.6936420687
416,2433604.6360095907
418,2591786.48989469
420,2765567.4272662275
422,2958462.2319889516
424,3171998.757364989
426,3405919.022361709
428,3655074.6287093554
430,3911026.2721269764
432,4162366.771169909
434,4401445.020099046
436,4628720.839932143
438,4855181.87487722
440,5091613.216980605
442,5332400.668517325
444,5561748.009599761
446,5758651.260581657
448,5900045.08881552
450,5984658.779009506
452,6026813.837314693
454,6040027.360815978
456,6041180.065248722
458,6041793.265802229
460,6041702.634249611
462,6041605.535740394
464,6041435.534557279
466,6040860.681208285
468,6041731.988705411
470,6041286.656661188
472,6041384.236338681
474,6041238.034625358
476,6040998.8299972825
478,6041667.067064043
480,6041185.642635279
482,6041318.705270453
484,6041221.343765823
486,6041551.761687081
488,6041336.725340556
490,6041338.645600537
492,6041505.452229653
494,6041190.531809216
496,6041381.013635913
498,6041759.9058664
500,6041435.024773622
502,6041925.181961782
504,6041472.14907818
506,6041684.090478321
508,6041096.833458329
510,6041627.622558796
512,6041844.727295806
514,6041483.289597036
516,6040912.642622215
518,6041505.0929058455
520,6041383.230128164
522,6041641.41630342
524,6041260.883315656
526,6041047.027552276
528,6041328.470230775
530,6041141.5125357425
532,6041313.933839471
534,6041494.249354499
536,6041224.585999517
538,6041535.749945347
540,6041422.394178341
542,6041378.884086379
544,6041650.97072115
546,6041362.606653284
548,6041692.124256213
550,6041327.419885105
552,6041070.041437609
554,6041725.968026029
556,6041342.869568161
558,6041472.900397568
560,6041400.647099823
562,6041185.32034857
564,6041299.41650594
566,6041156.041628847
568,6041122.880202598
570,6041775.830313062
572,6041673.55687342
574,6041585.957528264
576,6041328.207066103
578,6041326.029591338
580,6041574.134203672
582,6041530.434298507
584,6041181.084525522
586,6041110.493824311
588,6041609.697068649
590,6041594.381732084
592,6041474.059951243
594,6041441.607035025
596,6041339.276649029
598,6041382.885415537
600,6041610.267048466
602,6041549.214017286
604,6041344.17976357
606,6041310.502843977
608,6041385.645709507
610,6041421.680430401
612,6041552.615173189
614,6041629.632480258
616,6041416.902456739
618,6041235.110723602
620,6041485.839826163
622,6041629.898123222
624,6041018.153435291
626,6040737.768239836
628,6040663.64419361
630,6040580.251526848
632,6041000.501591293
634,6041665.003519604
636,6042020.188054297
638,6041726.44315985
640,6041319.20006122
642,6041593.770210518
644,6042597.265687466
646,6042275.547699252
648,6041918.9169192305
650,6043707.37034896
652,6043892.818460921
654,6042214.472398511
656,6041726.690711713
658,6041772.816778524
660,6041564.810497201
662,6041464.737126066
664,6041914.677804795
666,6042496.921639806
668,6041081.51503163
670,6041563.095449718
672,6041267.224894159
674,6041163.487610578
676,6041536.129247367
678,6041346.243476852
680,6041150.289957759
682,6041410.314774481
684,6041560.064687427
686,6041447.9187860545
688,6040955.81893969
690,6041315.875338955
692,6041350.307975556
694,6041850.281893436
696,6041497.367671758
698,6041199.302168769
700,6041453.64627868
702,6041828.693192877
704,6040860.42770877
706,6041675.622792104
708,6041571.681644926
710,6041346.454989626
712,6041546.234560798
714,6041858.824615336
716,6041142.5820534965
718,6041286.403162461
720,6041703.1207177285
722,6041807.585318082
724,6041329.8607438
726,6041296.890614847
728,6041527.288726995
730,6041723.792105585
732,6041192.330811199
734,6041150.1016538385
736,6041704.398114255
738,6041255.137810724
740,6041344.973276121
742,6041402.044472554
744,6041509.896928869
746,6041611.23472158
748,6041281.529689905
750,6041392.455248062
752,6040981.1977447625
754,6041295.389267499
756,6041239.4416478425
758,6041271.659960353
760,6041533.037164191
762,6033170.558480699
764,5997309.196911797
766,5919816.184365741
768,5789128.623488824
770,5591227.92157777
772,5331562.926099856
774,5030824.995786329
776,4699258.250554136
778,4346757.545140255
780,3987299.429810042
782,3631624.3336451664
784,3286378.269654552
786,2964560.482130975
788,2677357.907088312
790,2431812.978824052
792,2227005.630354121
794,2056991.6675400746
796,1912122.286436368
798,1783069.2196949078
800,1663500.214270693
802,1548744.6415391257
804,1440089.3704584274
806,1338355.7413583586
808,1246002.4351940232
810,1164641.9993123675
812,1094313.8934356393
814,1033315.1507154639
816,979276.3012057306
818,928884.3489745458
820,880151.1850921786
822,831067.2044299131
824,781134.7456778135
826,731197.4373941015
828,682133.9307999852
830,635157.065687494
832,590767.9318637582
834,549817.9262336656
836,511926.9827578021
838,476508.58827418834
840,442988.8091633684
842,410512.7161371145
844,378885.83903410326
846,347759.8550145639
848,317145.038704723
850,286997.5341464601
852,257814.11993689087
854,229635.74166079867
856,202883.51438950063
858,177548.2583061767
860,153963.78261275878
862,132580.8515415665
864,113288.53811543316
866,96239.40874515912
868,81413.00428997858
870,68826.20859127876
872,58133.754868965356
874,49160.33286656182
876,41666.7751322839
878,35497.06635140222
880,30295.018445045593
882,25695.68578759554
884,21591.37521759164
886,17852.922836174053
888,14389.809163301048
890,11160.697668091325
892,8122.388938503005
894,5540.658797514908
896,3560.8201047046186
898,2067.8082667675035
900,1036.1379326991748
902,389.7262820249188
904,91.05201843704549
906,33.85408597934234
908,10.175341117526877
910,0.4798427012002451
912,-3.482973111878331
914,2.393407046365594
916,-5.54246237681494
918,-0.29287613119402345
920,-2.3379566926154904
922,4.289920058427215
924,0.9442159283387628
926,-2.7336637591896857
928,1.0006701908683229
930,-1.3057717257606596
932,1.5404292547943992
934,4.001179039549514
936,-1.414773894536123
938,3.248233771030033
940,0.4896997775772239
942,3.269850699677664
944,0.8757233738836303
946,1.835094323646329
948,-1.5911823412967454
950,0.22756291881490442
952,1.4645588048001232
954,3.043621082643513
956,0.027056986644400358
958,-0.10659459427895207
960,-0.7023202398106899
962,-2.0064684457895754
964,-3.0020412361544704
966,-2.2327748367148637
968,-2.2451702637504916
970,3.087313082970052
972,-1.474238603491238
974,-1.3750943045639343
976,0.09099228775895851
978,-4.359327552662422
980,0.17173412192045567
982,0.5883557203648353
984,-0.6237451035931326
986,0.24693956783995888
988,-1.1733774690472267
990,1.089032408027303
992,0.5823660453244227
994,0.22070109661222787
996,-2.4283186811864717
998,-1.410528741235163
1000,-1.602076920989911
1002,-0.0723170684905614
1004,-2.2803875418149437
1006,-0.15982876153475076
1008,-1.1915084778267833
1010,-1.9937058314243845
1012,1.598653035792643
1014,-0.6487785841223528
1016,2.324849570691117
1018,0.7091701747258704
