wave,flux
336,2715.6701550021994
338,4077.2800998113357
340,5667.716446093419
342,7824.845670453941
344,10857.083291080755
346,14670.246164116845
348,19061.432929848022
350,23715.752452375702
352,29208.755665160446
354,35804.44530403354
356,43203.952656292415
358,51660.93764860841
360,61620.13554473959
362,72349.18825468536
364,83172.57493248694
366,95424.08579950177
368,110991.89794953463
370,131802.64026314122
372,162120.0479659933
374,211485.85539630835
376,292881.3975800708
378,412693.49142249365
380,563452.007278807
382,728347.3354955524
384,894876.6097231549
386,1060764.635840187
388,1229363.0145058811
390,1403132.7672957731
392,1590353.5320124023
394,1804515.8812714336
396,2063350.2556924976
398,2371974.3378068395
400,2720310.3538376684
402,3075395.163809546
404,3399636.632161544
406,3663933.9402892306
408,3865452.2158898734
410,4026809.2976079946
412,4180714.4413823723
414,4352225.966345089
416,4546647.55830051
418,4762399.918315653
420,5007127.146517303
422,5272840.810225541
424,5539274.301342087
426,5770837.257193082
428,5925506.0535837645
430,6008481.620940705
432,6038461.126074939
434,6041148.638191338
436,6041651.450998893
438,6041319.783954446
440,6041119.337147313
442,6041765.726131426
444,6041304.209293883
446,6041563.381316826
448,6041307.751026903
450,6041468.674905955
452,6041280.913332715
454,6041040.825248389
456,6041180.432794617
458,6041615.648027426
460,6040932.251343656
462,6041179.763655808
464,6041643.205894124
466,6041606.367959837
468,6041325.763619131
470,6041624.123300779
472,6041484.079276934
474,6041468.123409951
476,6041107.157433955
478,6041859.610800826
480,6041385.857546126
482,6041619.090338843
484,6041265.159199352
486,6041461.973369713
488,6041217.21964487
490,6041502.151730647
492,6041395.998328946
494,6041645.785023933
496,6041394.124105142
498,6041417.45185413
500,6041067.339163483
502,6041540.128600164
504,6040993.800843863
506,6041666.5220773
508,6041057.41607864
510,6041933.523970568
512,6041010.701002659
514,6041500.660323401
516,6041523.638514303
518,6041205.846471335
520,6041340.4972975
522,6041259.650842626
524,6041145.926516467
526,6041250.119080044
528,6041379.488702901
530,6041724.574588457
532,6041272.477483494
534,6041351.261640173
536,6040928.65776593
538,6041428.871344974
540,6040804.618825568
542,6041591.545023767
544,6041421.169543079
546,6041419.666919139
548,6041197.730369529
550,6041243.634487136
552,6041783.061509374
554,6041366.083747642
556,6041199.696770234
558,6041144.447610205
560,6041495.472992242
562,6041561.996016268
564,6041647.650631801
566,6041575.250317094
568,6041204.613471618
570,6041764.425769801
572,6041114.911312617
574,6041315.880076433
576,6041336.824565652
578,6041090.004419877
580,6041055.067826775
582,6041156.235834855
584,6041151.378191902
586,6041120.400750796
588,6041570.400653
590,6041515.5127513185
592,6041330.145802831
594,6041211.523206649
596,6041229.985789736
598,6041521.303816481
600,6041364.691933709
602,6041356.5767915975
604,6041573.38328901
606,6041504.6071917955
608,6041091.48834743
610,6041227.507484013
612,6041315.735830324
614,6041196.232572644
616,6041263.217857097
618,6041324.354846368
620,6042208.251425712
622,6042526.704863536
624,6040954.018526808
626,6041515.436940115
628,6042092.890617669
630,6041531.342188502
632,6043284.295896448
634,6043865.366309849
636,6041860.51500848
638,6039863.728286496
640,6040066.7950649215
642,6040998.503060395
644,6040541.333796612
646,6042297.908493701
648,6043587.7921979455
650,6041009.029854684
652,6041517.290095263
654,6041407.157317413
656,6041094.205728348
658,6041507.758741866
660,6041551.156701785
662,6041377.488910419
664,6041484.487866223
666,6041443.750119036
668,6041107.991050147
670,6041563.760999699
672,6041267.2062764475
674,6041163.483843256
676,6041536.128915831
678,6041346.24345349
680,6041150.289956291
682,6041410.314774397
684,6041560.064687422
686,6041447.9187860545
688,6040955.81893969
690,6041315.875338955
692,6041350.307975556
694,6041850.281893436
696,6041497.367671758
698,6041199.302168769
700,6041453.64627868
702,6041828.693192877
704,6040860.42770877
706,6041675.622792104
708,6041571.681644926
710,6041346.454989626
712,6041546.234560798
714,6041858.824615336
716,6041142.5820534965
718,6041286.403162461
720,6041703.1207177285
722,6041807.585318082
724,6041329.8607438
726,6041296.890614847
728,6041527.288726995
730,6041723.792105585
732,6041192.330811199
734,6041150.1016538385
736,6041704.398114255
738,6041255.137810724
740,6041344.973276121
742,6041402.044472554
744,6041509.896928869
746,6041611.23472158
748,6041281.529689905
750,6041392.455248062
752,6040981.1977447625
754,6041295.389267499
756,6041239.4416478425
758,6041271.659960353
760,6041533.037164191
762,6033170.558480699
764,5997309.196911797
766,5919816.184365741
768,5789128.623488824
770,5591227.92157777
772,5331562.926099856
774,5030824.995786329
776,4699258.250554136
778,4346757.545140255
780,3987299.429810042
782,3631624.3336451664
784,3286378.269654552
786,2964560.482130975
788,2677357.907088312
790,2431812.978824052
792,2227005.630354121
794,2056991.6675400746
796,1912122.286436368
798,1783069.2196949078
800,1663500.214270693
802,1548744.6415391257
804,1440089.3704584274
806,1338355.7413583586
808,1246002.4351940232
810,1164641.9993123675
812,1094313.8934356393
814,1033315.1507154639
816,979276.3012057306
818,928884.3489745458
820,880151.1850921786
822,831067.2044299131
824,781134.7456778135
826,731197.4373941015
828,682133.9307999852
830,635157.065687494
832,590767.9318637582
834,549817.9262336656
836,511926.9827578021
838,476508.58827418834
840,442988.8091633684
842,410512.7161371145
844,378885.83903410326
846,347759.8550145639
848,317145.038704723
850,286997.5341464601
852,257814.11993689087
854,229635.74166079867
856,202883.51438950063
858,177548.2583061767
860,153963.78261275878
862,132580.8515415665
864,113288.53811543316
866,96239.40874515912
868,81413.00428997858
870,68826.20859127876
872,58133.754868965356
874,49160.33286656182
876,41666.7751322839
878,35497.06635140222
880,30295.018445045593
882,25695.68578759554
884,21591.37521759164
886,17852.922836174053
888,14389.809163301048
890,11160.697668091325
892,8122.388938503005
894,5540.658797514908
896,3560.8201047046186
898,2067.8082667675035
900,1036.1379326991748
902,389.7262820249188
904,91.05201843704549
906,33.85408597934234
908,10.175341117526877
910,0.4798427012002451
912,-3.482973111878331
914,2.393407046365594
916,-5.54246237681494
918,-0.29287613119402345
920,-2.3379566926154904
922,4.289920058427215
924,0.9442159283387628
926,-2.7336637591896857
928,1.0006701908683229
930,-1.3057717257606596
932,1.5404292547943992
934,4.001179039549514
936,-1.414773894536123
938,3.248233771030033
940,0.4896997775772239
942,3.269850699677664
944,0.8757233738836303
946,1.835094323646329
948,-1.5911823412967454
950,0.22756291881490442
952,1.4645588048001232
954,3.043621082643513
956,0.027056986644400358
958,-0.10659459427895207
960,-0.7023202398106899
962,-2.0064684457895754
964,-3.0020412361544704
966,-2.2327748367148637
968,-2.2451702637504916
970,3.087313082970052
972,-1.474238603491238
974,-1.3750943045639343
976,0.09099228775895851
978,-4.359327552662422
980,0.17173412192045567
982,0.5883557203648353
984,-0.6237451035931326
986,0.24693956783995888
988,-1.1733774690472267
990,1.089032408027303
992,0.5823660453244227
994,0.22070109661222787
996,-2.4283186811864717
998,-1.410528741235163
1000,-1.602076920989911
1002,-0.0723170684905614
1004,-2.2803875418149437
1006,-0.15982876153475076
1008,-1.1915084778267833
1010,-1.9937058314243845
1012,1.598653035792643
1014,-0.6487785841223528
1016,2.324849570691117
1018,0.7091701747258704
