wave,flux
336,207827.31466575613
338,249825.82660719866
340,275487.417904419
342,326307.3836609773
344,422066.67368015926
346,519026.2817430748
348,576526.5091207568
350,603429.2199925091
352,624455.1692928998
354,651786.3578212829
356,689543.2567373748
358,731015.3760990242
360,769300.5597731292
362,822064.4562918046
364,922626.0670913823
366,1068793.5803886936
368,1204427.329206109
370,1263345.0828931145
372,1233301.4572459557
374,1164840.1701634023
376,1123753.7240303243
378,1133763.5150813218
380,1169716.5869767324
382,1199805.4476123783
384,1223549.9377112275
386,1275714.2241537082
388,1396361.9583995997
390,1598266.9734420616
392,1858800.9049669912
394,2133448.5663917935
396,2386377.4283483517
398,2605672.7894313596
400,2798484.0754384506
402,2975476.130012606
404,3147255.3799304315
406,3327217.1983649554
408,3528441.6409883015
410,3752995.734183273
412,3990833.0427535004
414,4230580.628508607
416,4464302.972973716
418,4685874.941559578
420,4887539.51344937
422,5058962.8336301
424,5199483.236191639
426,5322149.830238055
428,5451382.12441695
430,5594127.340752393
432,5742461.684666774
434,5875066.2024013335
436,5966640.84270261
438,6017823.273508294
440,6038850.41038588
442,6041030.989849714
444,6041198.317378657
446,6041314.23774277
448,6041450.968993209
450,6041492.348534755
452,6040969.203546994
454,6041647.316794505
456,6041705.760058734
458,6041155.229819573
460,6041428.092409139
462,6041250.293213651
464,6041186.470574415
466,6041570.016368193
468,6041258.015059315
470,6040884.503673394
472,6041209.947452468
474,6041778.532788737
476,6041861.053760873
478,6041008.728463144
480,6041519.886641431
482,6041257.664681944
484,6041996.650046638
486,6041244.670581032
488,6041220.2367215725
490,6041390.468283097
492,6041681.832929097
494,6040886.8257541815
496,6041001.72554293
498,6041373.8532668315
500,6041373.0025749635
502,6041440.399787659
504,6041615.565823098
506,6041658.813850431
508,6041771.214408609
510,6041333.492670878
512,6041551.412779897
514,6041673.277667572
516,6041006.5825496
518,6041549.413425192
520,6041220.685465126
522,6041560.656429355
524,6041569.772430493
526,6041728.66554761
528,6041384.32717997
530,6041438.789914691
532,6041176.615163233
534,6041728.259442785
536,6041481.342336496
538,6041405.032426901
540,6041437.164922308
542,6041914.92293585
544,6041180.0487461975
546,6041612.475181876
548,6041868.142495943
550,6041835.300837605
552,6041620.873413153
554,6041443.728070962
556,6041544.687151094
558,6041467.097937124
560,6041017.585786458
562,6041292.677703067
564,6041180.984897996
566,6041155.502592359
568,6041482.653195536
570,6041144.009288984
572,6041893.2848538235
574,6041495.084453577
576,6041413.99095438
578,6041589.94174399
580,6041412.679074129
582,6041100.452922698
584,6041110.266649521
586,6041493.605465858
588,6041410.063615442
590,6041364.247960584
592,6041311.953876052
594,6041565.066240923
596,6041835.697736638
598,6041359.067114371
600,6041096.759007206
602,6041292.4458728805
604,6041385.737264779
606,6041268.942636188
608,6041373.3763397625
610,6041332.169497175
612,6041204.484553118
614,6041384.753642662
616,6041692.194775845
618,6041164.102987731
620,6042056.69698018
622,6043259.570896356
624,6041980.883300716
626,6041343.314218873
628,6041590.461564934
630,6042059.276743018
632,6042965.387938022
634,6042454.096205626
636,6040937.942345821
638,6040770.475644224
640,6041477.654787693
642,6041591.104063445
644,6040594.825246916
646,6041321.390582563
648,6042757.021919048
650,6042114.672521692
652,6041617.915081653
654,6041797.461587237
656,6041280.094992861
658,6040857.161027546
660,6040739.063780919
662,6039922.16485264
664,6039513.449698066
666,6040628.591946177
668,6042189.54930932
670,6042969.873958849
672,6042253.696028113
674,6041349.934195245
676,6041183.320018867
678,6040517.196958427
680,6039641.11229431
682,6040212.294419482
684,6041510.767818605
686,6041947.35035734
688,6040945.284554561
690,6041315.341343958
692,6041350.279507541
694,6041850.280152903
696,6041497.367540614
698,6041199.302156838
700,6041453.64627748
702,6041828.693192753
704,6040860.427708759
706,6041675.622792103
708,6041571.681644925
710,6041346.454989626
712,6041546.234560798
714,6041858.824615336
716,6041142.5820534965
718,6041286.403162461
720,6041703.1207177285
722,6041807.585318082
724,6041329.8607438
726,6041296.890614847
728,6041527.288726995
730,6041723.792105585
732,6041192.330811199
734,6041150.1016538385
736,6041704.398114255
738,6041255.137810724
740,6041344.973276121
742,6041402.044472554
744,6041509.896928869
746,6041611.23472158
748,6041281.529689905
750,6041392.455248062
752,6040981.1977447625
754,6041295.389267499
756,6041239.4416478425
758,6041271.659960353
760,6041533.037164191
762,6033170.558480699
764,5997309.196911797
766,5919816.184365741
768,5789128.623488824
770,5591227.92157777
772,5331562.926099856
774,5030824.995786329
776,4699258.250554136
778,4346757.545140255
780,3987299.429810042
782,3631624.3336451664
784,3286378.269654552
786,2964560.482130975
788,2677357.907088312
790,2431812.978824052
792,2227005.630354121
794,2056991.6675400746
796,1912122.286436368
798,1783069.2196949078
800,1663500.214270693
802,1548744.6415391257
804,1440089.3704584274
806,1338355.7413583586
808,1246002.4351940232
810,1164641.9993123675
812,1094313.8934356393
814,1033315.1507154639
816,979276.3012057306
818,928884.3489745458
820,880151.1850921786
822,831067.2044299131
824,781134.7456778135
826,731197.4373941015
828,682133.9307999852
830,635157.065687494
832,590767.9318637582
834,549817.9262336656
836,511926.9827578021
838,476508.58827418834
840,442988.8091633684
842,410512.7161371145
844,378885.83903410326
846,347759.8550145639
848,317145.038704723
850,286997.5341464601
852,257814.11993689087
854,229635.74166079867
856,202883.51438950063
858,177548.2583061767
860,153963.78261275878
862,132580.8515415665
864,113288.53811543316
866,96239.40874515912
868,81413.00428997858
870,68826.20859127876
872,58133.754868965356
874,49160.33286656182
876,41666.7751322839
878,35497.06635140222
880,30295.018445045593
882,25695.68578759554
884,21591.37521759164
886,17852.922836174053
888,14389.809163301048
890,11160.697668091325
892,8122.388938503005
894,5540.658797514908
896,3560.8201047046186
898,2067.8082667675035
900,1036.1379326991748
902,389.7262820249188
904,91.05201843704549
906,33.85408597934234
908,10.175341117526877
910,0.4798427012002451
912,-3.482973111878331
914,2.393407046365594
916,-5.54246237681494
918,-0.29287613119402345
920,-2.3379566926154904
922,4.289920058427215
924,0.9442159283387628
926,-2.7336637591896857
928,1.0006701908683229
930,-1.3057717257606596
932,1.5404292547943992
934,4.001179039549514
936,-1.414773894536123
938,3.248233771030033
940,0.4896997775772239
942,3.269850699677664
944,0.8757233738836303
946,1.835094323646329
948,-1.5911823412967454
950,0.22756291881490442
952,1.4645588048001232
954,3.043621082643513
956,0.027056986644400358
958,-0.10659459427895207
960,-0.7023202398106899
962,-2.0064684457895754
964,-3.0020412361544704
966,-2.2327748367148637
968,-2.2451702637504916
970,3.087313082970052
972,-1.474238603491238
974,-1.3750943045639343
976,0.09099228775895851
978,-4.359327552662422
980,0.17173412192045567
982,0.5883557203648353
984,-0.6237451035931326
986,0.24693956783995888
988,-1.1733774690472267
990,1.089032408027303
992,0.5823660453244227
994,0.22070109661222787
996,-2.4283186811864717
998,-1.410528741235163
1000,-1.602076920989911
1002,-0.0723170684905614
1004,-2.2803875418149437
1006,-0.15982876153475076
1008,-1.1915084778267833
1010,-1.9937058314243845
1012,1.598653035792643
1014,-0.6487785841223528
1016,2.324849570691117
1018,0.7091701747258704
