wave,flux
336,272.04444225562895
338,378.9328028365473
340,501.8879396801477
342,720.5071779236333
344,1054.9525711667736
346,1613.376988731763
348,2520.9136776389887
350,3746.261070819013
352,5368.942823293287
354,7464.043303884288
356,9969.745447111705
358,12833.471512234153
360,16193.758505298529
362,20274.447136129682
364,25074.431383395775
366,30646.18063493578
368,37293.39836058219
370,45348.72874855003
372,55084.28511504064
374,67018.25608844342
376,82189.0262299932
378,101874.90864710923
380,127022.69639701041
382,157431.56814843082
384,191185.97408400843
386,225030.06513841057
388,255531.98085823742
390,282691.1856256539
392,312171.2305894194
394,352240.3164269283
396,408987.1325304373
398,484598.54305686214
400,581039.1565921461
402,701375.8365566068
404,849454.1950861678
406,1026279.1870729846
408,1229679.8461433263
410,1455690.8986410657
412,1699665.4542146998
414,1955902.137005759
416,2217593.042812531
418,2478867.4838366634
420,2737283.105657143
422,2995852.9993280456
424,3261634.89141565
426,3544427.9160605883
428,3849392.875448449
430,4174746.4918417833
432,4512088.288242227
434,4850693.910837897
436,5174499.458398757
438,5462168.32529717
440,5697602.28548036
442,5866512.266418458
444,5967997.445230087
446,6019750.7817169875
448,6038627.856347364
450,6041338.266350856
452,6041435.135121545
454,6041395.244643362
456,6041360.375106944
458,6041176.905369394
460,6041310.760430495
462,6041218.095268553
464,6041611.547319959
466,6041195.69531973
468,6041579.614826007
470,6041304.173405239
472,6040907.940634413
474,6041744.7373141525
476,6041140.222815678
478,6041931.9886693405
480,6041640.124923187
482,6041306.940383968
484,6041359.123860589
486,6041368.458495173
488,6041467.895248635
490,6041158.985013109
492,6041422.9509703675
494,6041555.333799531
496,6041567.083351799
498,6041550.871123525
500,6041244.154407563
502,6042145.060689258
504,6041084.373212276
506,6041135.738025032
508,6041310.247074808
510,6041567.562584463
512,6041945.138539757
514,6041239.364421779
516,6041535.978120574
518,6041144.2993699685
520,6041275.696513845
522,6041357.756166011
524,6041440.405246319
526,6041395.067128113
528,6041368.648011988
530,6041720.355742895
532,6041316.683376206
534,6041587.141034685
536,6041358.511987771
538,6041738.310730931
540,6041277.652044076
542,6041392.385996259
544,6041753.094308927
546,6041344.355108479
548,6041253.511362607
550,6041193.700642378
552,6040935.8467889065
554,6041002.001247891
556,6041415.274945578
558,6041433.297137525
560,6041390.809869741
562,6041490.832787463
564,6041475.125072631
566,6041298.644539658
568,6041349.814578922
570,6041664.291732843
572,6041382.403773192
574,6041457.865977645
576,6041925.980323683
578,6041819.482878314
580,6041478.461620151
582,6041207.776609059
584,6040908.981262961
586,6041045.17356392
588,6041321.476293982
590,6041440.156538698
592,6041507.311654826
594,6041494.33426802
596,6041262.055331981
598,6041110.78457533
600,6041574.764503841
602,6041311.361712736
604,6041023.775935863
606,6041355.663888356
608,6041453.697586858
610,6041390.893213328
612,6041355.526767029
614,6041374.429234275
616,6041415.287421706
618,6041470.000581165
620,6040958.371253833
622,6040508.375710283
624,6041144.828307405
626,6041726.672970925
628,6041842.73743709
630,6041610.771136531
632,6041151.988043191
634,6040587.602131015
636,6040038.827373942
638,6039626.877745919
640,6039472.967220886
642,6039698.309772782
644,6040424.119375555
646,6041693.165764979
648,6041643.7461706465
650,6041401.219711734
652,6041705.777114717
654,6041397.689689034
656,6041151.216791151
658,6041511.431214405
660,6041551.262288403
662,6041377.486709215
664,6041484.487439378
666,6041443.750089349
668,6041107.991048771
670,6041563.760999665
672,6041267.2062764475
674,6041163.483843256
676,6041536.128915831
678,6041346.24345349
680,6041150.289956291
682,6041410.314774397
684,6041560.064687422
686,6041447.9187860545
688,6040955.81893969
690,6041315.875338955
692,6041350.307975556
694,6041850.281893436
696,6041497.367671758
698,6041199.302168769
700,6041453.64627868
702,6041828.693192877
704,6040860.42770877
706,6041675.622792104
708,6041571.681644926
710,6041346.454989626
712,6041546.234560798
714,6041858.824615336
716,6041142.5820534965
718,6041286.403162461
720,6041703.1207177285
722,6041807.585318082
724,6041329.8607438
726,6041296.890614847
728,6041527.288726995
730,6041723.792105585
732,6041192.330811199
734,6041150.1016538385
736,6041704.398114255
738,6041255.137810724
740,6041344.973276121
742,6041402.044472554
744,6041509.896928869
746,6041611.23472158
748,6041281.529689905
750,6041392.455248062
752,6040981.1977447625
754,6041295.389267499
756,6041239.4416478425
758,6041271.659960353
760,6041533.037164191
762,6033170.558480699
764,5997309.196911797
766,5919816.184365741
768,5789128.623488824
770,5591227.92157777
772,5331562.926099856
774,5030824.995786329
776,4699258.250554136
778,4346757.545140255
780,3987299.429810042
782,3631624.3336451664
784,3286378.269654552
786,2964560.482130975
788,2677357.907088312
790,2431812.978824052
792,2227005.630354121
794,2056991.6675400746
796,1912122.286436368
798,1783069.2196949078
800,1663500.214270693
802,1548744.6415391257
804,1440089.3704584274
806,1338355.7413583586
808,1246002.4351940232
810,1164641.9993123675
812,1094313.8934356393
814,1033315.1507154639
816,979276.3012057306
818,928884.3489745458
820,880151.1850921786
822,831067.2044299131
824,781134.7456778135
826,731197.4373941015
828,682133.9307999852
830,635157.065687494
832,590767.9318637582
834,549817.9262336656
836,511926.9827578021
838,476508.58827418834
840,442988.8091633684
842,410512.7161371145
844,378885.83903410326
846,347759.8550145639
848,317145.038704723
850,286997.5341464601
852,257814.11993689087
854,229635.74166079867
856,202883.51438950063
858,177548.2583061767
860,153963.78261275878
862,132580.8515415665
864,113288.53811543316
866,96239.40874515912
868,81413.00428997858
870,68826.20859127876
872,58133.754868965356
874,49160.33286656182
876,41666.7751322839
878,35497.06635140222
880,30295.018445045593
882,25695.68578759554
884,21591.37521759164
886,17852.922836174053
888,14389.809163301048
890,11160.697668091325
892,8122.388938503005
894,5540.658797514908
896,3560.8201047046186
898,2067.8082667675035
900,1036.1379326991748
902,389.7262820249188
904,91.05201843704549
906,33.85408597934234
908,10.175341117526877
910,0.4798427012002451
912,-3.482973111878331
914,2.393407046365594
916,-5.54246237681494
918,-0.29287613119402345
920,-2.3379566926154904
922,4.289920058427215
924,0.9442159283387628
926,-2.7336637591896857
928,1.0006701908683229
930,-1.3057717257606596
932,1.5404292547943992
934,4.001179039549514
936,-1.414773894536123
938,3.248233771030033
940,0.4896997775772239
942,3.269850699677664
944,0.8757233738836303
946,1.835094323646329
948,-1.5911823412967454
950,0.22756291881490442
952,1.4645588048001232
954,3.043621082643513
956,0.027056986644400358
958,-0.10659459427895207
960,-0.7023202398106899
962,-2.0064684457895754
964,-3.0020412361544704
966,-2.2327748367148637
968,-2.2451702637504916
970,3.087313082970052
972,-1.474238603491238
974,-1.3750943045639343
976,0.09099228775895851
978,-4.359327552662422
980,0.17173412192045567
982,0.5883557203648353
984,-0.6237451035931326
986,0.24693956783995888
988,-1.1733774690472267
990,1.089032408027303
992,0.5823660453244227
994,0.22070109661222787
996,-2.4283186811864717
998,-1.410528741235163
1000,-1.602076920989911
1002,-0.0723170684905614
1004,-2.2803875418149437
1006,-0.15982876153475076
1008,-1.1915084778267833
1010,-1.9937058314243845
1012,1.598653035792643
1014,-0.6487785841223528
1016,2.324849570691117
1018,0.7091701747258704
