wave,flux
336,122598.54185575378
338,145773.03049757722
340,148833.13798861846
342,142658.4434533072
344,143971.4953220965
346,156610.09688020844
348,170707.51397011595
350,178098.347726313
352,179834.3814496522
354,181925.8398054699
356,191439.44325276985
358,214833.97519204926
360,250900.59251993007
362,286254.67730342713
364,308125.87906007475
366,318432.3198854882
368,326606.1884042126
370,336871.24305695813
372,350118.92104886414
374,368004.2205072011
376,393103.6217164931
378,425962.8409420303
380,466067.29421110003
382,512353.93210765946
384,566092.1088366798
386,630982.72854343
388,709462.984733882
390,802339.7553835394
392,912695.6252980839
394,1038215.5613804214
396,1169512.9872346392
398,1289051.3683818395
400,1388849.7832836646
402,1472319.2902347762
404,1553077.3402993262
406,1639971.8583424992
408,1731530.0681775643
410,1817881.0748948313
412,1889349.4535373985
414,1948396.5338606692
416,2012580.4194498917
418,2105542.067994365
420,2243783.685946028
422,2423126.907308417
424,2620356.1909407093
426,2805128.3752106763
428,2958550.5485985414
430,3081352.4530735514
432,3191180.479453887
434,3309399.1548517877
436,3451660.741388148
438,3619768.1859322092
440,3802076.341887041
442,3980161.6073483676
444,4139067.8000001027
446,4272298.977342658
448,4388290.725790678
450,4502458.546104951
452,4633106.061863324
454,4795591.83915563
456,4995738.993881399
458,5218403.696274403
460,5445554.741153847
462,5654903.039067752
464,5820902.201596142
466,5933308.623606703
468,5999988.08716758
470,6032328.690380717
472,6040919.323254473
474,6041542.907660134
476,6041795.580199201
478,6041747.6920442805
480,6041564.200483048
482,6041286.112642866
484,6041238.358761607
486,6041178.581134111
488,6041400.341033964
490,6041721.444728817
492,6041272.587729271
494,6041224.284313177
496,6041699.199178508
498,6041268.641718794
500,6041606.085917957
502,6041240.051910602
504,6041181.4718321515
506,6041377.785519074
508,6041284.213294119
510,6041612.854402305
512,6041092.853754089
514,6041115.377900711
516,6041627.412185968
518,6042011.504199669
520,6041394.940791829
522,6041552.401301363
524,6041518.586631686
526,6041539.349369339
528,6041801.226126664
530,6040891.0262829
532,6041645.668260108
534,6041344.79906833
536,6041419.979532893
538,6041218.932103082
540,6040956.498526209
542,6041252.861906972
544,6041455.070109161
546,6041117.699071465
548,6041077.804506262
550,6041323.908042617
552,6041282.26910483
554,6041346.423902666
556,6041470.11010395
558,6041335.065621319
560,6041645.88568974
562,6041950.10807865
564,6041533.489795343
566,6041682.776210031
568,6041773.518601877
570,6040992.749934466
572,6041460.025552753
574,6041235.737084887
576,6041505.334366474
578,6041420.092571529
580,6041379.054088681
582,6041859.180771459
584,6041956.555520928
586,6041589.307240145
588,6041030.900098085
590,6041059.811652277
592,6041580.611604564
594,6041412.244065925
596,6040857.1789522655
598,6041176.368598383
600,6041066.1156470515
602,6041240.962736284
604,6041524.770271528
606,6041434.299799284
608,6041226.136498189
610,6041137.284840416
612,6041209.0455832295
614,6041430.322005538
616,6041672.313660542
618,6041614.313687401
620,6041396.606455979
622,6041114.224727299
624,6040902.797982707
626,6041268.204842797
628,6040905.241739801
630,6040249.391711701
632,6042177.400852195
634,6043752.750621255
636,6042835.71962435
638,6040372.676889898
640,6039195.610289915
642,6039943.3947976595
644,6041174.280848448
646,6041424.938396249
648,6041642.091394039
650,6041400.270927128
652,6041705.734090696
654,6041397.6896712985
656,6041151.216883932
658,6041511.431220383
660,6041551.262288574
662,6041377.486709212
664,6041484.487439378
666,6041443.750089349
668,6041107.991048771
670,6041563.760999665
672,6041267.2062764475
674,6041163.483843256
676,6041536.128915831
678,6041346.24345349
680,6041150.289956291
682,6041410.314774397
684,6041560.064687422
686,6041447.9187860545
688,6040955.81893969
690,6041315.875338955
692,6041350.307975556
694,6041850.281893436
696,6041497.367671758
698,6041199.302168769
700,6041453.64627868
702,6041828.693192877
704,6040860.42770877
706,6041675.622792104
708,6041571.681644926
710,6041346.454989626
712,6041546.234560798
714,6041858.824615336
716,6041142.5820534965
718,6041286.403162461
720,6041703.1207177285
722,6041807.585318082
724,6041329.8607438
726,6041296.890614847
728,6041527.288726995
730,6041723.792105585
732,6041192.330811199
734,6041150.1016538385
736,6041704.398114255
738,6041255.137810724
740,6041344.973276121
742,6041402.044472554
744,6041509.896928869
746,6041611.23472158
748,6041281.529689905
750,6041392.455248062
752,6040981.1977447625
754,6041295.389267499
756,6041239.4416478425
758,6041271.659960353
760,6041533.037164191
762,6033170.558480699
764,5997309.196911797
766,5919816.184365741
768,5789128.623488824
770,5591227.92157777
772,5331562.926099856
774,5030824.995786329
776,4699258.250554136
778,4346757.545140255
780,3987299.429810042
782,3631624.3336451664
784,3286378.269654552
786,2964560.482130975
788,2677357.907088312
790,2431812.978824052
792,2227005.630354121
794,2056991.6675400746
796,1912122.286436368
798,1783069.2196949078
800,1663500.214270693
802,1548744.6415391257
804,1440089.3704584274
806,1338355.7413583586
808,1246002.4351940232
810,1164641.9993123675
812,1094313.8934356393
814,1033315.1507154639
816,979276.3012057306
818,928884.3489745458
820,880151.1850921786
822,831067.2044299131
824,781134.7456778135
826,731197.4373941015
828,682133.9307999852
830,635157.065687494
832,590767.9318637582
834,549817.9262336656
836,511926.9827578021
838,476508.58827418834
840,442988.8091633684
842,410512.7161371145
844,378885.83903410326
846,347759.8550145639
848,317145.038704723
850,286997.5341464601
852,257814.11993689087
854,229635.74166079867
856,202883.51438950063
858,177548.2583061767
860,153963.78261275878
862,132580.8515415665
864,113288.53811543316
866,96239.40874515912
868,81413.00428997858
870,68826.20859127876
872,58133.754868965356
874,49160.33286656182
876,41666.7751322839
878,35497.06635140222
880,30295.018445045593
882,25695.68578759554
884,21591.37521759164
886,17852.922836174053
888,14389.809163301048
890,11160.697668091325
892,8122.388938503005
894,5540.658797514908
896,3560.8201047046186
898,2067.8082667675035
900,1036.1379326991748
902,389.7262820249188
904,91.05201843704549
906,33.85408597934234
908,10.175341117526877
910,0.4798427012002451
912,-3.482973111878331
914,2.393407046365594
916,-5.54246237681494
918,-0.29287613119402345
920,-2.3379566926154904
922,4.289920058427215
924,0.9442159283387628
926,-2.7336637591896857
928,1.0006701908683229
930,-1.3057717257606596
932,1.5404292547943992
934,4.001179039549514
936,-1.414773894536123
938,3.248233771030033
940,0.4896997775772239
942,3.269850699677664
944,0.8757233738836303
946,1.835094323646329
948,-1.5911823412967454
950,0.22756291881490442
952,1.4645588048001232
954,3.043621082643513
956,0.027056986644400358
958,-0.10659459427895207
960,-0.7023202398106899
962,-2.0064684457895754
964,-3.0020412361544704
966,-2.2327748367148637
968,-2.2451702637504916
970,3.087313082970052
972,-1.474238603491238
974,-1.3750943045639343
976,0.09099228775895851
978,-4.359327552662422
980,0.17173412192045567
982,0.5883557203648353
984,-0.6237451035931326
986,0.24693956783995888
988,-1.1733774690472267
990,1.089032408027303
992,0.5823660453244227
994,0.22070109661222787
996,-2.4283186811864717
998,-1.410528741235163
1000,-1.602076920989911
1002,-0.0723170684905614
1004,-2.2803875418149437
1006,-0.15982876153475076
1008,-1.1915084778267833
1010,-1.9937058314243845
1012,1.598653035792643
1014,-0.6487785841223528
1016,2.324849570691117
1018,0.7091701747258704
