wave,flux
336,2642.3849170209046
338,3959.2732116152592
340,5549.702722230817
342,7212.496579279024
344,9015.972753526588
346,11276.419925306778
348,13880.94071217881
350,16671.24534525394
352,19967.531477007928
354,23973.761872776187
356,28766.941723163138
358,34277.03796063029
360,40439.34032613032
362,46809.60449824285
364,52796.72630178641
366,59333.436749605295
368,68051.83067920238
370,80927.59517359699
372,102378.72948127298
374,139948.75959721563
376,203335.75545209047
378,301340.5521244787
380,437271.384316522
382,605297.4729044283
384,791235.1167177138
386,975856.8909559735
388,1142910.960661954
390,1289144.35818218
392,1426455.7668371238
394,1557379.4463625168
396,1674608.9010180729
398,1765006.5978572129
400,1842969.8002553438
402,1924344.8601130978
404,2017045.6746161825
406,2107405.7901127124
408,2182032.7440652368
410,2239363.426180174
412,2288187.567757271
414,2340523.1620482616
416,2407466.647288802
418,2503815.7368761166
420,2645174.8343947814
422,2843116.5534717147
424,3093585.223237303
426,3377266.498553571
428,3659682.50937822
430,3899028.7109444365
432,4063082.3865279034
434,4144096.093983842
436,4165499.038438075
438,4175995.652949278
440,4225539.768536534
442,4348573.556334402
444,4556763.1815902265
446,4833914.870798081
448,5140028.458641511
450,5437083.49732241
452,5687793.93265996
454,5863822.479735589
456,5969578.505709429
458,6022746.297529055
460,6040050.622484083
462,6041475.552935196
464,6041273.973904648
466,6041973.338507765
468,6041319.07410992
470,6041350.169270809
472,6041264.433639821
474,6041728.134538067
476,6041445.8859962225
478,6041389.66718942
480,6041297.359703993
482,6041260.230183961
484,6041290.342835633
486,6041222.89503154
488,6041579.221354633
490,6040941.253622581
492,6041614.9735455
494,6041330.136179049
496,6041244.310004826
498,6041213.566567109
500,6041215.959175661
502,6041276.574187136
504,6041536.098144117
506,6041397.063849581
508,6041387.723098236
510,6041320.868364591
512,6041737.051938374
514,6041489.987211531
516,6041015.274316807
518,6041320.357146195
520,6040859.075408126
522,6041521.006703066
524,6041579.525859978
526,6041028.577740922
528,6041392.376476168
530,6041414.735824866
532,6041128.344824993
534,6041307.963849069
536,6041363.0024917675
538,6041416.954355329
540,6041238.217928244
542,6041139.9129235055
544,6041915.932373381
546,6041847.095542889
548,6041626.79426875
550,6041498.278467653
552,6041602.698664703
554,6041554.887069082
556,6041659.488754047
558,6041292.735673904
560,6041508.2839544555
562,6041736.856448348
564,6041745.197636611
566,6041178.936664412
568,6041316.128424914
570,6041469.148145039
572,6041534.633673134
574,6041274.877090565
576,6041857.530214416
578,6041594.589485599
580,6041272.652141349
582,6041659.5587729
584,6041736.722461677
586,6041593.596382182
588,6041193.492052934
590,6041485.301824436
592,6041524.850225935
594,6041241.7140912395
596,6041182.110664817
598,6041136.186422312
600,6041000.62228236
602,6041182.828353387
604,6041496.767040524
606,6041495.065729839
608,6041185.442347237
610,6041113.666458712
612,6041307.946273734
614,6041412.158692047
616,6041377.415127344
618,6041786.078878438
620,6041749.362996683
622,6041201.13695675
624,6041028.948928532
626,6041239.267961656
628,6041223.199164443
630,6041204.268084585
632,6042266.028754472
634,6042668.2495930595
636,6041818.427961195
638,6041056.543852766
640,6041574.560586474
642,6041788.100193899
644,6040260.627597282
646,6041675.920846896
648,6043840.258801216
650,6041838.8302242225
652,6041111.279086066
654,6042563.208016068
656,6042358.7072503315
658,6041684.572742463
660,6042023.340710674
662,6043260.443010411
664,6043812.195777502
666,6042897.169724728
668,6042808.295041703
670,6043589.696991344
672,6043388.949521066
674,6042684.123112859
676,6042287.347297002
678,6041818.793607245
680,6043196.84655491
682,6041763.322691241
684,6041579.415228813
686,6041448.932777653
688,6040955.870503849
690,6041315.877952776
692,6041350.308114903
694,6041850.281901956
696,6041497.367672401
698,6041199.302168826
700,6041453.646278686
702,6041828.693192879
704,6040860.42770877
706,6041675.622792104
708,6041571.681644926
710,6041346.454989626
712,6041546.234560798
714,6041858.824615336
716,6041142.5820534965
718,6041286.403162461
720,6041703.1207177285
722,6041807.585318082
724,6041329.8607438
726,6041296.890614847
728,6041527.288726995
730,6041723.792105585
732,6041192.330811199
734,6041150.1016538385
736,6041704.398114255
738,6041255.137810724
740,6041344.973276121
742,6041402.044472554
744,6041509.896928869
746,6041611.23472158
748,6041281.529689905
750,6041392.455248062
752,6040981.1977447625
754,6041295.389267499
756,6041239.4416478425
758,6041271.659960353
760,6041533.037164191
762,6033170.558480699
764,5997309.196911797
766,5919816.184365741
768,5789128.623488824
770,5591227.92157777
772,5331562.926099856
774,5030824.995786329
776,4699258.250554136
778,4346757.545140255
780,3987299.429810042
782,3631624.3336451664
784,3286378.269654552
786,2964560.482130975
788,2677357.907088312
790,2431812.978824052
792,2227005.630354121
794,2056991.6675400746
796,1912122.286436368
798,1783069.2196949078
800,1663500.214270693
802,1548744.6415391257
804,1440089.3704584274
806,1338355.7413583586
808,1246002.4351940232
810,1164641.9993123675
812,1094313.8934356393
814,1033315.1507154639
816,979276.3012057306
818,928884.3489745458
820,880151.1850921786
822,831067.2044299131
824,781134.7456778135
826,731197.4373941015
828,682133.9307999852
830,635157.065687494
832,590767.9318637582
834,549817.9262336656
836,511926.9827578021
838,476508.58827418834
840,442988.8091633684
842,410512.7161371145
844,378885.83903410326
846,347759.8550145639
848,317145.038704723
850,286997.5341464601
852,257814.11993689087
854,229635.74166079867
856,202883.51438950063
858,177548.2583061767
860,153963.78261275878
862,132580.8515415665
864,113288.53811543316
866,96239.40874515912
868,81413.00428997858
870,68826.20859127876
872,58133.754868965356
874,49160.33286656182
876,41666.7751322839
878,35497.06635140222
880,30295.018445045593
882,25695.68578759554
884,21591.37521759164
886,17852.922836174053
888,14389.809163301048
890,11160.697668091325
892,8122.388938503005
894,5540.658797514908
896,3560.8201047046186
898,2067.8082667675035
900,1036.1379326991748
902,389.7262820249188
904,91.05201843704549
906,33.85408597934234
908,10.175341117526877
910,0.4798427012002451
912,-3.482973111878331
914,2.393407046365594
916,-5.54246237681494
918,-0.29287613119402345
920,-2.3379566926154904
922,4.289920058427215
924,0.9442159283387628
926,-2.7336637591896857
928,1.0006701908683229
930,-1.3057717257606596
932,1.5404292547943992
934,4.001179039549514
936,-1.414773894536123
938,3.248233771030033
940,0.4896997775772239
942,3.269850699677664
944,0.8757233738836303
946,1.835094323646329
948,-1.5911823412967454
950,0.22756291881490442
952,1.4645588048001232
954,3.043621082643513
956,0.027056986644400358
958,-0.10659459427895207
960,-0.7023202398106899
962,-2.0064684457895754
964,-3.0020412361544704
966,-2.2327748367148637
968,-2.2451702637504916
970,3.087313082970052
972,-1.474238603491238
974,-1.3750943045639343
976,0.09099228775895851
978,-4.359327552662422
980,0.17173412192045567
982,0.5883557203648353
984,-0.6237451035931326
986,0.24693956783995888
988,-1.1733774690472267
990,1.089032408027303
992,0.5823660453244227
994,0.22070109661222787
996,-2.4283186811864717
998,-1.410528741235163
1000,-1.602076920989911
1002,-0.0723170684905614
1004,-2.2803875418149437
1006,-0.15982876153475076
1008,-1.1915084778267833
1010,-1.9937058314243845
1012,1.598653035792643
1014,-0.6487785841223528
1016,2.324849570691117
1018,0.7091701747258704
