wave,flux
336,346.60143038314663
338,683.029643933043
340,1066.9735779096516
342,1416.84644137268
344,2094.456837013551
346,3090.0879754362877
348,4236.9549852427335
350,5705.632793131302
352,7572.013728968639
354,10301.032326809483
356,13991.82485231335
358,18273.940049615365
360,23363.13720990057
362,29484.74931548599
364,36465.97267873594
366,44663.15230322597
368,53963.2922713263
370,63928.58651252422
372,75059.28150507002
374,88078.8446423532
376,104030.45359149812
378,125119.96119082112
380,154350.63909860046
382,194318.47094808347
384,247022.5159278696
386,311663.2398619952
388,384503.2615601199
390,458764.62071029644
392,528335.3698947217
394,591764.3819974798
396,658676.4734829797
398,745322.6742949017
400,862853.9141009116
402,1008023.0014359842
404,1167369.4174697807
406,1333527.5759768297
408,1510949.9386805329
410,1713348.489766876
412,1954003.5712277102
414,2243586.2335666656
416,2588199.835959249
418,2983702.1671994575
420,3413695.4731132337
422,3858481.996076413
424,4305523.266928951
426,4748351.400192932
428,5162354.665195771
430,5519382.755793892
432,5783968.882961345
434,5941604.01036749
436,6016950.648100748
438,6040193.8619278865
440,6041448.513244628
442,6041340.038649999
444,6041349.239393492
446,6041146.792285856
448,6041327.404190947
450,6041211.073112958
452,6041825.469599553
454,6040928.616977367
456,6041462.66677504
458,6041378.404886287
460,6041577.630922063
462,6041557.1215332
464,6041316.162178172
466,6041153.011572544
468,6041295.985802955
470,6041660.364364949
472,6041184.331850295
474,6041220.2932127
476,6041264.190604342
478,6041360.185630155
480,6041361.704623942
482,6041284.018842323
484,6041759.529134305
486,6041525.413421328
488,6041363.021278061
490,6041530.736349341
492,6041328.903911815
494,6041581.667028792
496,6041459.627422793
498,6041420.330461556
500,6041406.519262908
502,6041577.116807352
504,6041217.679445441
506,6041463.14690395
508,6041325.450401715
510,6041550.251383225
512,6041736.022737342
514,6041092.032135519
516,6040967.634345463
518,6041240.335858222
520,6041267.196452328
522,6041524.698286824
524,6041310.889595697
526,6041022.870552029
528,6041542.51931901
530,6041190.860717999
532,6041586.289297796
534,6041472.594159636
536,6041688.7864501
538,6041474.218422206
540,6041320.23338594
542,6041274.700274764
544,6041753.61553787
546,6041405.96259457
548,6041288.274355965
550,6041147.365589776
552,6041600.917748729
554,6041689.395448049
556,6041407.219930685
558,6041539.9798716
560,6041364.862133255
562,6041391.521035662
564,6041964.001177216
566,6041823.721256304
568,6041434.530316509
570,6041216.025014024
572,6041268.56078013
574,6041455.488349026
576,6041441.649618521
578,6041629.626223297
580,6041439.594814443
582,6041224.993463719
584,6041237.698530793
586,6040708.43487962
588,6041308.573648386
590,6041305.455301697
592,6041569.400042162
594,6041733.152439523
596,6041240.950986162
598,6041070.694917695
600,6041104.844478227
602,6041261.375003762
604,6041057.406150604
606,6040915.8780489685
608,6041573.869010851
610,6041500.999616423
612,6041237.496848346
614,6041524.374654642
616,6042060.580195623
618,6041881.499706149
620,6040872.206342329
622,6040606.783738396
624,6041975.200016288
626,6041660.601804911
628,6040968.135913708
630,6041533.557888778
632,6041990.912314928
634,6041759.647555538
636,6041057.236220403
638,6040489.5027951
640,6040394.50110583
642,6041642.713697848
644,6044122.307470933
646,6043860.599837836
648,6041290.7414357085
650,6039842.58347963
652,6040027.381445538
654,6041056.530350066
656,6041775.595330714
658,6042171.857473085
660,6042172.9021738935
662,6041420.673805876
664,6040889.70708542
666,6041265.410511048
668,6041268.17032841
670,6040582.378360869
672,6040001.834190766
674,6040498.564468017
676,6042002.011595517
678,6042264.032146323
680,6041236.088353721
682,6040995.680235258
684,6042135.9739980465
686,6044130.859792008
688,6045072.335011895
690,6044015.089587664
692,6042124.609169229
694,6040697.568663105
696,6040771.769859226
698,6041485.546087274
700,6041447.635679898
702,6041828.073187823
704,6040860.36472186
706,6041675.616611803
708,6041571.681065828
710,6041346.45493836
712,6041546.234556579
714,6041858.824615022
716,6041142.582053478
718,6041286.40316246
720,6041703.120717729
722,6041807.585318082
724,6041329.8607438
726,6041296.890614847
728,6041527.288726995
730,6041723.792105585
732,6041192.330811199
734,6041150.1016538385
736,6041704.398114255
738,6041255.137810724
740,6041344.973276121
742,6041402.044472554
744,6041509.896928869
746,6041611.23472158
748,6041281.529689905
750,6041392.455248062
752,6040981.1977447625
754,6041295.389267499
756,6041239.4416478425
758,6041271.659960353
760,6041533.037164191
762,6033170.558480699
764,5997309.196911797
766,5919816.184365741
768,5789128.623488824
770,5591227.92157777
772,5331562.926099856
774,5030824.995786329
776,4699258.250554136
778,4346757.545140255
780,3987299.429810042
782,3631624.3336451664
784,3286378.269654552
786,2964560.482130975
788,2677357.907088312
790,2431812.978824052
792,2227005.630354121
794,2056991.6675400746
796,1912122.286436368
798,1783069.2196949078
800,1663500.214270693
802,1548744.6415391257
804,1440089.3704584274
806,1338355.7413583586
808,1246002.4351940232
810,1164641.9993123675
812,1094313.8934356393
814,1033315.1507154639
816,979276.3012057306
818,928884.3489745458
820,880151.1850921786
822,831067.2044299131
824,781134.7456778135
826,731197.4373941015
828,682133.9307999852
830,635157.065687494
832,590767.9318637582
834,549817.9262336656
836,511926.9827578021
838,476508.58827418834
840,442988.8091633684
842,410512.7161371145
844,378885.83903410326
846,347759.8550145639
848,317145.038704723
850,286997.5341464601
852,257814.11993689087
854,229635.74166079867
856,202883.51438950063
858,177548.2583061767
860,153963.78261275878
862,132580.8515415665
864,113288.53811543316
866,96239.40874515912
868,81413.00428997858
870,68826.20859127876
872,58133.754868965356
874,49160.33286656182
876,41666.7751322839
878,35497.06635140222
880,30295.018445045593
882,25695.68578759554
884,21591.37521759164
886,17852.922836174053
888,14389.809163301048
890,11160.697668091325
892,8122.388938503005
894,5540.658797514908
896,3560.8201047046186
898,2067.8082667675035
900,1036.1379326991748
902,389.7262820249188
904,91.05201843704549
906,33.85408597934234
908,10.175341117526877
910,0.4798427012002451
912,-3.482973111878331
914,2.393407046365594
916,-5.54246237681494
918,-0.29287613119402345
920,-2.3379566926154904
922,4.289920058427215
924,0.9442159283387628
926,-2.7336637591896857
928,1.0006701908683229
930,-1.3057717257606596
932,1.5404292547943992
934,4.001179039549514
936,-1.414773894536123
938,3.248233771030033
940,0.4896997775772239
942,3.269850699677664
944,0.8757233738836303
946,1.835094323646329
948,-1.5911823412967454
950,0.22756291881490442
952,1.4645588048001232
954,3.043621082643513
956,0.027056986644400358
958,-0.10659459427895207
960,-0.7023202398106899
962,-2.0064684457895754
964,-3.0020412361544704
966,-2.2327748367148637
968,-2.2451702637504916
970,3.087313082970052
972,-1.474238603491238
974,-1.3750943045639343
976,0.09099228775895851
978,-4.359327552662422
980,0.17173412192045567
982,0.5883557203648353
984,-0.6237451035931326
986,0.24693956783995888
988,-1.1733774690472267
990,1.089032408027303
992,0.5823660453244227
994,0.22070109661222787
996,-2.4283186811864717
998,-1.410528741235163
1000,-1.602076920989911
1002,-0.0723170684905614
1004,-2.2803875418149437
1006,-0.15982876153475076
1008,-1.1915084778267833
1010,-1.9937058314243845
1012,1.598653035792643
1014,-0.6487785841223528
1016,2.324849570691117
1018,0.7091701747258704
