wave,flux
336,-5.025719126315414
338,-1.7547297125161139
340,35.22567303565944
342,124.68030074018088
344,222.44274512756562
346,334.13407916289435
348,498.8353854190348
350,795.6051301427556
352,1246.2559356196382
354,1775.5503135176414
356,2324.265175609773
358,2969.992649749815
360,3856.825707398559
362,5014.30165486611
364,6322.726552256299
366,7802.959871915375
368,9507.79756417525
370,11391.895474877321
372,13466.237187958346
374,15824.953661789108
376,18672.08474972598
378,22215.311344139984
380,26494.37777618122
382,31096.900057416035
384,36381.45494964244
386,43255.285077704684
388,53347.322030921794
390,71944.85718378088
392,111707.70717926172
394,173640.69964913608
396,247145.42907171173
398,308833.03399744374
400,355338.61981879146
402,391495.2420280106
404,430680.3542827591
406,479543.1702884563
408,543350.5730789202
410,624142.9288029758
412,718710.0259046146
414,818497.7823800116
416,912948.4062944484
418,997092.2525178479
420,1073205.0100258745
422,1149181.7361274129
424,1234850.4426729463
426,1337054.7358482718
428,1457865.8779731912
430,1590413.3970116386
432,1720635.786421986
434,1834488.7802860348
436,1924027.89141282
438,1993049.5622121545
440,2053269.720573515
442,2116101.3372495943
444,2188325.7257863246
446,2274408.9749009227
448,2379417.3015606827
450,2512139.7281446285
452,2687120.4171293173
454,2946774.443791167
456,3325784.0605323147
458,3802611.9442693954
460,4346106.028897379
462,4908949.186062968
464,5376678.548562651
466,5707256.986717694
468,5915615.303926935
470,6018049.205657518
472,6041243.851240153
474,6041409.358645502
476,6041497.033896414
478,6041398.465612335
480,6041488.105937173
482,6041214.60851032
484,6041466.775775711
486,6041299.8913097
488,6041831.706442762
490,6041281.913700055
492,6041594.9469283465
494,6041408.040165007
496,6041635.44904369
498,6041360.0629803715
500,6041184.687671768
502,6041395.459689297
504,6041905.954965103
506,6041281.979919689
508,6041737.7382852845
510,6041907.490894336
512,6041238.23092106
514,6041410.976745722
516,6041379.033224393
518,6041352.221133059
520,6041383.9043492805
522,6041112.264812951
524,6041515.440503129
526,6041546.950624057
528,6041433.420117947
530,6041563.932035631
532,6041165.375234385
534,6041453.942049401
536,6041243.622512619
538,6041369.268394927
540,6041267.440220033
542,6041693.274005195
544,6041422.188254907
546,6041190.506662298
548,6041325.599035304
550,6041510.888512848
552,6041494.890690635
554,6041587.255536026
556,6041536.57238566
558,6041497.545785366
560,6041376.790556894
562,6041414.473093828
564,6041608.009990628
566,6041453.137654858
568,6041745.45494144
570,6041696.135080655
572,6041279.805580776
574,6040928.133433127
576,6041160.259036346
578,6041571.349053909
580,6041283.134901119
582,6041194.112084277
584,6041497.082021245
586,6040868.682917651
588,6041082.421999355
590,6040926.789277283
592,6041239.836249082
594,6041619.992419977
596,6041373.831633741
598,6041301.457007029
600,6041538.271964438
602,6041400.517706938
604,6041228.046207737
606,6041457.525706438
608,6041611.993107181
610,6041096.327230235
612,6041124.699081058
614,6041456.338196474
616,6040948.147279959
618,6040463.899270368
620,6040661.360767643
622,6041304.146381194
624,6041513.5527326325
626,6040810.310357996
628,6041224.670524605
630,6042698.499745665
632,6041831.214380909
634,6040924.623348411
636,6041049.477442201
638,6040904.109773284
640,6040817.676454857
642,6041155.116019519
644,6041997.809657543
646,6043259.131882751
648,6043552.078361933
650,6041783.152938092
652,6040721.491334153
654,6041398.132002125
656,6041148.902897703
658,6041511.2821607
660,6041551.258002984
662,6041377.486798555
664,6041484.487456702
666,6041443.750090554
668,6041107.991048828
670,6041563.760999666
672,6041267.206276448
674,6041163.483843256
676,6041536.128915831
678,6041346.24345349
680,6041150.289956291
682,6041410.314774397
684,6041560.064687422
686,6041447.9187860545
688,6040955.81893969
690,6041315.875338955
692,6041350.307975556
694,6041850.281893436
696,6041497.367671758
698,6041199.302168769
700,6041453.64627868
702,6041828.693192877
704,6040860.42770877
706,6041675.622792104
708,6041571.681644926
710,6041346.454989626
712,6041546.234560798
714,6041858.824615336
716,6041142.5820534965
718,6041286.403162461
720,6041703.1207177285
722,6041807.585318082
724,6041329.8607438
726,6041296.890614847
728,6041527.288726995
730,6041723.792105585
732,6041192.330811199
734,6041150.1016538385
736,6041704.398114255
738,6041255.137810724
740,6041344.973276121
742,6041402.044472554
744,6041509.896928869
746,6041611.23472158
748,6041281.529689905
750,6041392.455248062
752,6040981.1977447625
754,6041295.389267499
756,6041239.4416478425
758,6041271.659960353
760,6041533.037164191
762,6033170.558480699
764,5997309.196911797
766,5919816.184365741
768,5789128.623488824
770,5591227.92157777
772,5331562.926099856
774,5030824.995786329
776,4699258.250554136
778,4346757.545140255
780,3987299.429810042
782,3631624.3336451664
784,3286378.269654552
786,2964560.482130975
788,2677357.907088312
790,2431812.978824052
792,2227005.630354121
794,2056991.6675400746
796,1912122.286436368
798,1783069.2196949078
800,1663500.214270693
802,1548744.6415391257
804,1440089.3704584274
806,1338355.7413583586
808,1246002.4351940232
810,1164641.9993123675
812,1094313.8934356393
814,1033315.1507154639
816,979276.3012057306
818,928884.3489745458
820,880151.1850921786
822,831067.2044299131
824,781134.7456778135
826,731197.4373941015
828,682133.9307999852
830,635157.065687494
832,590767.9318637582
834,549817.9262336656
836,511926.9827578021
838,476508.58827418834
840,442988.8091633684
842,410512.7161371145
844,378885.83903410326
846,347759.8550145639
848,317145.038704723
850,286997.5341464601
852,257814.11993689087
854,229635.74166079867
856,202883.51438950063
858,177548.2583061767
860,153963.78261275878
862,132580.8515415665
864,113288.53811543316
866,96239.40874515912
868,81413.00428997858
870,68826.20859127876
872,58133.754868965356
874,49160.33286656182
876,41666.7751322839
878,35497.06635140222
880,30295.018445045593
882,25695.68578759554
884,21591.37521759164
886,17852.922836174053
888,14389.809163301048
890,11160.697668091325
892,8122.388938503005
894,5540.658797514908
896,3560.8201047046186
898,2067.8082667675035
900,1036.1379326991748
902,389.7262820249188
904,91.05201843704549
906,33.85408597934234
908,10.175341117526877
910,0.4798427012002451
912,-3.482973111878331
914,2.393407046365594
916,-5.54246237681494
918,-0.29287613119402345
920,-2.3379566926154904
922,4.289920058427215
924,0.9442159283387628
926,-2.7336637591896857
928,1.0006701908683229
930,-1.3057717257606596
932,1.5404292547943992
934,4.001179039549514
936,-1.414773894536123
938,3.248233771030033
940,0.4896997775772239
942,3.269850699677664
944,0.8757233738836303
946,1.835094323646329
948,-1.5911823412967454
950,0.22756291881490442
952,1.4645588048001232
954,3.043621082643513
956,0.027056986644400358
958,-0.10659459427895207
960,-0.7023202398106899
962,-2.0064684457895754
964,-3.0020412361544704
966,-2.2327748367148637
968,-2.2451702637504916
970,3.087313082970052
972,-1.474238603491238
974,-1.3750943045639343
976,0.09099228775895851
978,-4.359327552662422
980,0.17173412192045567
982,0.5883557203648353
984,-0.6237451035931326
986,0.24693956783995888
988,-1.1733774690472267
990,1.089032408027303
992,0.5823660453244227
994,0.22070109661222787
996,-2.4283186811864717
998,-1.410528741235163
1000,-1.602076920989911
1002,-0.0723170684905614
1004,-2.2803875418149437
1006,-0.15982876153475076
1008,-1.1915084778267833
1010,-1.9937058314243845
1012,1.598653035792643
1014,-0.6487785841223528
1016,2.324849570691117
1018,0.7091701747258704
