wave,flux
336,9.443438683301167
338,20.78856021253151
340,34.47019124623356
342,38.51989761799594
344,55.0953071774124
346,146.77226755579952
348,334.87160910088653
350,573.5141939059458
352,768.3546964072768
354,887.4636035403333
356,1027.277889949962
358,1302.2490101462718
360,1855.8885730721902
362,2582.8043981451206
364,3225.3597470566137
366,3730.1881733966557
368,4276.147048727687
370,5042.793028339788
372,6131.876703383737
374,7476.237017632945
376,8897.539505138926
378,10206.442687292325
380,11427.470543381409
382,12802.676975277634
384,14864.666696526516
386,18248.916991874183
388,23185.98668849232
390,29047.824962682513
392,34801.30626438408
394,39855.96153365967
396,44944.64749063256
398,52501.47945168952
400,65901.47336007746
402,88223.01351072089
404,120287.52595292222
406,159416.61493602622
408,199679.6852319687
410,233177.20039902176
412,253418.73531516976
414,258360.00814820762
416,253048.9887352057
418,248823.46683465422
420,260258.51579915444
422,299462.89888057276
424,371770.57361307996
426,472657.6810581559
428,587671.4094610736
430,696916.4044925898
432,781924.0557568716
434,832379.976051491
436,851168.6744849805
438,852117.411488741
440,854239.0722847002
442,875624.9265183618
444,927875.9790931399
446,1014794.1792262634
448,1133452.0994898027
450,1275531.8731062652
452,1429224.029282073
454,1581382.5880470278
456,1719625.0263447908
458,1831833.4652249285
460,1911952.8331498024
462,1960091.5697407783
464,1981289.9752636151
466,1990055.0204244982
468,2005519.6537399879
470,2047335.735360816
472,2130942.1511297254
474,2265760.7147995285
476,2450025.1773890126
478,2671067.662631455
480,2908635.950325473
482,3138859.677978572
484,3337515.4614649205
486,3485604.2736002374
488,3572536.073197904
490,3597944.2130303383
492,3571182.9653482926
494,3507186.498333834
496,3428255.7296436853
498,3353547.680334798
500,3304444.699831437
502,3295106.005941571
504,3336592.949372768
506,3433403.202594861
508,3587463.883976343
510,3798574.456124169
512,4057020.418218651
514,4346414.942513001
516,4649673.814346247
518,4950856.678428704
520,5232534.274359846
522,5478328.56437948
524,5674242.023677828
526,5819490.839545642
528,5921091.860435834
530,5985499.683651328
532,6022009.469162443
534,6037812.562272263
536,6041431.2295252085
538,6041368.152503721
540,6041408.056386625
542,6041203.9455814315
544,6041365.960510848
546,6041734.861817429
548,6041489.85315465
550,6041367.357074801
552,6041671.868430199
554,6041528.918737483
556,6041533.734474028
558,6041339.923734364
560,6041312.872599889
562,6041771.810853999
564,6041671.670152712
566,6041517.73607778
568,6041803.355227699
570,6041390.396402136
572,6041398.695666247
574,6041564.715760086
576,6041609.37243366
578,6041758.952062085
580,6041614.921158608
582,6041191.189262201
584,6041286.264092656
586,6041704.581401355
588,6041342.564904708
590,6041606.926189901
592,6041310.579494599
594,6041047.591100187
596,6041387.999950607
598,6041230.402683377
600,6041394.56616579
602,6041645.31833287
604,6041603.813394704
606,6041460.431690113
608,6041494.103235246
610,6041189.145210705
612,6041232.536600598
614,6041570.610051267
616,6041645.448952268
618,6041840.953893411
620,6041063.23563142
622,6040096.544497943
624,6040855.711332833
626,6042271.377176744
628,6042006.198661195
630,6040242.974176324
632,6040283.276589615
634,6041060.448147624
636,6041327.705450862
638,6041069.942568994
640,6040606.672815037
642,6040317.020908356
644,6040580.111568309
646,6041690.231555138
648,6041643.756856659
650,6041401.225838681
652,6041705.777392553
654,6041397.689689148
656,6041151.216790552
658,6041511.431214368
660,6041551.262288401
662,6041377.486709215
664,6041484.487439378
666,6041443.750089349
668,6041107.991048771
670,6041563.760999665
672,6041267.2062764475
674,6041163.483843256
676,6041536.128915831
678,6041346.24345349
680,6041150.289956291
682,6041410.314774397
684,6041560.064687422
686,6041447.9187860545
688,6040955.81893969
690,6041315.875338955
692,6041350.307975556
694,6041850.281893436
696,6041497.367671758
698,6041199.302168769
700,6041453.64627868
702,6041828.693192877
704,6040860.42770877
706,6041675.622792104
708,6041571.681644926
710,6041346.454989626
712,6041546.234560798
714,6041858.824615336
716,6041142.5820534965
718,6041286.403162461
720,6041703.1207177285
722,6041807.585318082
724,6041329.8607438
726,6041296.890614847
728,6041527.288726995
730,6041723.792105585
732,6041192.330811199
734,6041150.1016538385
736,6041704.398114255
738,6041255.137810724
740,6041344.973276121
742,6041402.044472554
744,6041509.896928869
746,6041611.23472158
748,6041281.529689905
750,6041392.455248062
752,6040981.1977447625
754,6041295.389267499
756,6041239.4416478425
758,6041271.659960353
760,6041533.037164191
762,6033170.558480699
764,5997309.196911797
766,5919816.184365741
768,5789128.623488824
770,5591227.92157777
772,5331562.926099856
774,5030824.995786329
776,4699258.250554136
778,4346757.545140255
780,3987299.429810042
782,3631624.3336451664
784,3286378.269654552
786,2964560.482130975
788,2677357.907088312
790,2431812.978824052
792,2227005.630354121
794,2056991.6675400746
796,1912122.286436368
798,1783069.2196949078
800,1663500.214270693
802,1548744.6415391257
804,1440089.3704584274
806,1338355.7413583586
808,1246002.4351940232
810,1164641.9993123675
812,1094313.8934356393
814,1033315.1507154639
816,979276.3012057306
818,928884.3489745458
820,880151.1850921786
822,831067.2044299131
824,781134.7456778135
826,731197.4373941015
828,682133.9307999852
830,635157.065687494
832,590767.9318637582
834,549817.9262336656
836,511926.9827578021
838,476508.58827418834
840,442988.8091633684
842,410512.7161371145
844,378885.83903410326
846,347759.8550145639
848,317145.038704723
850,286997.5341464601
852,257814.11993689087
854,229635.74166079867
856,202883.51438950063
858,177548.2583061767
860,153963.78261275878
862,132580.8515415665
864,113288.53811543316
866,96239.40874515912
868,81413.00428997858
870,68826.20859127876
872,58133.754868965356
874,49160.33286656182
876,41666.7751322839
878,35497.06635140222
880,30295.018445045593
882,25695.68578759554
884,21591.37521759164
886,17852.922836174053
888,14389.809163301048
890,11160.697668091325
892,8122.388938503005
894,5540.658797514908
896,3560.8201047046186
898,2067.8082667675035
900,1036.1379326991748
902,389.7262820249188
904,91.05201843704549
906,33.85408597934234
908,10.175341117526877
910,0.4798427012002451
912,-3.482973111878331
914,2.393407046365594
916,-5.54246237681494
918,-0.29287613119402345
920,-2.3379566926154904
922,4.289920058427215
924,0.9442159283387628
926,-2.7336637591896857
928,1.0006701908683229
930,-1.3057717257606596
932,1.5404292547943992
934,4.001179039549514
936,-1.414773894536123
938,3.248233771030033
940,0.4896997775772239
942,3.269850699677664
944,0.8757233738836303
946,1.835094323646329
948,-1.5911823412967454
950,0.22756291881490442
952,1.4645588048001232
954,3.043621082643513
956,0.027056986644400358
958,-0.10659459427895207
960,-0.7023202398106899
962,-2.0064684457895754
964,-3.0020412361544704
966,-2.2327748367148637
968,-2.2451702637504916
970,3.087313082970052
972,-1.474238603491238
974,-1.3750943045639343
976,0.09099228775895851
978,-4.359327552662422
980,0.17173412192045567
982,0.5883557203648353
984,-0.6237451035931326
986,0.24693956783995888
988,-1.1733774690472267
990,1.089032408027303
992,0.5823660453244227
994,0.22070109661222787
996,-2.4283186811864717
998,-1.410528741235163
1000,-1.602076920989911
1002,-0.0723170684905614
1004,-2.2803875418149437
1006,-0.15982876153475076
1008,-1.1915084778267833
1010,-1.9937058314243845
1012,1.598653035792643
1014,-0.6487785841223528
1016,2.324849570691117
1018,0.7091701747258704
