wave,flux
336,5540.362642495279
338,9735.053699321112
340,14962.673690056095
342,21355.047650210858
344,28934.04392438528
346,37166.53154379427
348,45804.083473083956
350,54790.03212322892
352,64712.90339637653
354,76583.18014615147
356,90618.03728491176
358,106648.63366322144
360,124672.78486834514
362,143875.32268178655
364,162919.1018229424
366,182016.07223570647
368,202979.01705221625
370,228926.67984919125
372,266713.0959315598
374,329567.5048647601
376,439586.1635277759
378,622361.763453553
380,898613.0041703176
382,1280121.3307701373
384,1771262.0767825714
386,2363150.9135285784
388,3022804.389598798
390,3704571.4725319305
392,4372072.8433542205
394,4988827.683841814
396,5494131.469641592
398,5828584.575310037
400,5988280.147004166
402,6037311.769093914
404,6041345.518643078
406,6041404.7757939845
408,6041211.8473708555
410,6041295.684759342
412,6041199.897436295
414,6041441.697268749
416,6041115.183597205
418,6040974.849736274
420,6041508.489408041
422,6041427.922202722
424,6041436.891117739
426,6041176.475919123
428,6041298.172242364
430,6041111.870514148
432,6041018.83966217
434,6015582.121397107
436,5933469.044457296
438,5775448.267732489
440,5529684.064138506
442,5232815.763624944
444,4946795.72909594
446,4720497.851005268
448,4597246.553802164
450,4604946.639585546
452,4739071.935589055
454,4965972.095649259
456,5244002.177925777
458,5525295.440854187
460,5753058.328746941
462,5906514.549190712
464,5995411.745030635
466,6034349.8277482195
468,6041657.261701333
470,6041605.353880924
472,6041497.393857976
474,6041695.748318986
476,6041547.50964188
478,6041291.770593925
480,6041455.946086234
482,6041449.047096667
484,6041399.337350338
486,6041057.834330645
488,6041490.637456566
490,6041252.342591216
492,6041119.841413218
494,6041421.355569425
496,6041374.83753032
498,6041179.637989778
500,6041659.008857509
502,6041442.83276638
504,6041315.38307731
506,6041395.630317445
508,6041451.122835929
510,6041349.3975783475
512,6041143.83547026
514,6041521.21637773
516,6041823.693713824
518,6041240.210548926
520,6041376.5716757
522,6029065.200949516
524,5993310.238346201
526,5927432.437380598
528,5830062.998699235
530,5701575.741087779
532,5543825.577770724
534,5358636.796685755
536,5164696.343120303
538,4983239.830377092
540,4825078.294335726
542,4695688.843338165
544,4593199.717789616
546,4517009.204221218
548,4466900.791647656
550,4442199.907444646
552,4436815.200966124
554,4447406.784288102
556,4474323.097275692
558,4518631.004831382
560,4580638.440304042
562,4658833.5745083
564,4746970.294789243
566,4838278.445356432
568,4922845.641687142
570,4991911.9667893825
572,5038332.607458666
574,5058084.949946818
576,5050541.637356329
578,5019764.872431105
580,4971894.066330823
582,4916648.263183489
584,4866278.23325441
586,4831520.221172244
588,4820670.614206473
590,4836796.018790808
592,4882670.982154909
594,4956849.942282671
596,5055019.060015372
598,5171982.15162418
600,5299933.964962664
602,5431819.967615138
604,5557521.160869383
606,5669803.87635608
608,5766954.612997955
610,5847245.759053715
612,5911648.608529439
614,5961094.994838151
616,5996343.7752672285
618,6019691.5027792435
620,6032989.572427802
622,6039165.279792105
624,6041716.23372826
626,6042436.719603397
628,6042121.170116022
630,6041161.133275657
632,6040071.396928079
634,6040132.429664237
636,6040898.64044831
638,6040738.6586684575
640,6040294.941183414
642,6040558.90136608
644,6041813.903508703
646,6042714.164061269
648,6043341.702112148
650,6044291.621012916
652,6043755.017126847
654,6041913.370302056
656,6040833.586326422
658,6041128.68275364
660,6041893.706970333
662,6041163.238698526
664,6039618.229882829
666,6038665.125633086
668,6038616.543416626
670,6039596.921483943
672,6041295.588135037
674,6041251.424782771
676,6041264.170535666
678,6040996.217286042
680,6039927.165226936
682,6041200.2696610475
684,6041548.5508191325
686,6041447.315445534
688,6040955.788258223
690,6041315.873783689
692,6041350.307892643
694,6041850.281888366
696,6041497.367671376
698,6041199.302168733
700,6041453.6462786775
702,6041828.693192877
704,6040860.42770877
706,6041675.622792104
708,6041571.681644926
710,6041346.454989626
712,6041546.234560798
714,6041858.824615336
716,6041142.5820534965
718,6041286.403162461
720,6041703.1207177285
722,6041807.585318082
724,6041329.8607438
726,6041296.890614847
728,6041527.288726995
730,6041723.792105585
732,6041192.330811199
734,6041150.1016538385
736,6041704.398114255
738,6041255.137810724
740,6041344.973276121
742,6041402.044472554
744,6041509.896928869
746,6041611.23472158
748,6041281.529689905
750,6041392.455248062
752,6040981.1977447625
754,6041295.389267499
756,6041239.4416478425
758,6041271.659960353
760,6041533.037164191
762,6033170.558480699
764,5997309.196911797
766,5919816.184365741
768,5789128.623488824
770,5591227.92157777
772,5331562.926099856
774,5030824.995786329
776,4699258.250554136
778,4346757.545140255
780,3987299.429810042
782,3631624.3336451664
784,3286378.269654552
786,2964560.482130975
788,2677357.907088312
790,2431812.978824052
792,2227005.630354121
794,2056991.6675400746
796,1912122.286436368
798,1783069.2196949078
800,1663500.214270693
802,1548744.6415391257
804,1440089.3704584274
806,1338355.7413583586
808,1246002.4351940232
810,1164641.9993123675
812,1094313.8934356393
814,1033315.1507154639
816,979276.3012057306
818,928884.3489745458
820,880151.1850921786
822,831067.2044299131
824,781134.7456778135
826,731197.4373941015
828,682133.9307999852
830,635157.065687494
832,590767.9318637582
834,549817.9262336656
836,511926.9827578021
838,476508.58827418834
840,442988.8091633684
842,410512.7161371145
844,378885.83903410326
846,347759.8550145639
848,317145.038704723
850,286997.5341464601
852,257814.11993689087
854,229635.74166079867
856,202883.51438950063
858,177548.2583061767
860,153963.78261275878
862,132580.8515415665
864,113288.53811543316
866,96239.40874515912
868,81413.00428997858
870,68826.20859127876
872,58133.754868965356
874,49160.33286656182
876,41666.7751322839
878,35497.06635140222
880,30295.018445045593
882,25695.68578759554
884,21591.37521759164
886,17852.922836174053
888,14389.809163301048
890,11160.697668091325
892,8122.388938503005
894,5540.658797514908
896,3560.8201047046186
898,2067.8082667675035
900,1036.1379326991748
902,389.7262820249188
904,91.05201843704549
906,33.85408597934234
908,10.175341117526877
910,0.4798427012002451
912,-3.482973111878331
914,2.393407046365594
916,-5.54246237681494
918,-0.29287613119402345
920,-2.3379566926154904
922,4.289920058427215
924,0.9442159283387628
926,-2.7336637591896857
928,1.0006701908683229
930,-1.3057717257606596
932,1.5404292547943992
934,4.001179039549514
936,-1.414773894536123
938,3.248233771030033
940,0.4896997775772239
942,3.269850699677664
944,0.8757233738836303
946,1.835094323646329
948,-1.5911823412967454
950,0.22756291881490442
952,1.4645588048001232
954,3.043621082643513
956,0.027056986644400358
958,-0.10659459427895207
960,-0.7023202398106899
962,-2.0064684457895754
964,-3.0020412361544704
966,-2.2327748367148637
968,-2.2451702637504916
970,3.087313082970052
972,-1.474238603491238
974,-1.3750943045639343
976,0.09099228775895851
978,-4.359327552662422
980,0.17173412192045567
982,0.5883557203648353
984,-0.6237451035931326
986,0.24693956783995888
988,-1.1733774690472267
990,1.089032408027303
992,0.5823660453244227
994,0.22070109661222787
996,-2.4283186811864717
998,-1.410528741235163
1000,-1.602076920989911
1002,-0.0723170684905614
1004,-2.2803875418149437
1006,-0.15982876153475076
1008,-1.1915084778267833
1010,-1.9937058314243845
1012,1.598653035792643
1014,-0.6487785841223528
1016,2.324849570691117
1018,0.7091701747258704
