wave,flux
336,84.09313864611309
338,208.96711061095957
340,460.51693017793133
342,833.5368303555814
344,1321.4647073724568
346,1955.1261335665702
348,2729.9392269881537
350,3601.6669140477406
352,4603.655100090702
354,5771.497040993198
356,7112.937441644204
358,8743.577510359457
360,10831.806550536887
362,13364.555745142812
364,16170.19602339452
366,19316.699222344538
368,22980.2034365196
370,27232.94629383702
372,32052.595773422217
374,37630.23314736349
376,44387.88644317022
378,52956.776587120374
380,63856.9630582556
382,77720.36335032828
384,95976.38291869313
386,121320.64830343425
388,156987.90048264293
390,206115.64019537234
392,270032.60214270104
394,345912.35303926043
396,428211.7594047876
398,511163.8613107123
400,592987.4919755562
402,674055.3867403886
404,754662.1643191467
406,834338.5354347519
408,913624.3556758881
410,993746.5358529657
412,1074884.3657322729
414,1155969.7209700658
416,1235885.702429018
418,1316600.2815106697
420,1403169.6286735246
422,1504592.6011406137
424,1628351.1298554484
426,1777145.443873858
428,1945805.5562470276
430,2122729.1969089904
432,2294358.320684134
434,2452282.543435718
436,2597115.4112225245
438,2738950.704386382
440,2890464.8888208163
442,3061101.343499964
444,3254364.3061694875
446,3466416.8049422544
448,3691704.038047746
450,3926617.926504677
452,4167954.870088959
454,4419405.029496555
456,4684321.277274552
458,4959198.550215236
460,5230330.244350275
462,5482161.643755066
464,5694537.462097617
466,5851804.967203983
468,5953129.163420334
470,6009997.7855008375
472,6034700.683017622
474,6041377.468840811
476,6041777.131911465
478,6041408.802022444
480,6041756.697812781
482,6041087.539129731
484,6041294.545126029
486,6041616.609021412
488,6041481.014319663
490,6041192.487967114
492,6041538.69265469
494,6041307.716750027
496,6041422.786243761
498,6041646.856879354
500,6041444.5978986
502,6041563.4404745465
504,6041448.292548306
506,6041553.151441537
508,6041506.8757147705
510,6041456.130027884
512,6041616.5285372455
514,6041487.577077392
516,6041618.255284546
518,6041480.521642734
520,6041181.030335023
522,6041347.975814324
524,6041392.22723506
526,6041545.51888229
528,6041368.216993126
530,6041467.279437221
532,6041393.069874059
534,6041289.237789968
536,6041520.292972628
538,6041355.316549379
540,6041477.692594179
542,6041307.406485295
544,6041517.050803513
546,6041583.420389901
548,6041148.499749843
550,6041697.415085149
552,6041517.2252572365
554,6040996.540475672
556,6041452.191290004
558,6041535.145729432
560,6041433.159274612
562,6041484.807077204
564,6041420.68752502
566,6042031.238878314
568,6041638.538138841
570,6041204.628117038
572,6041639.622026678
574,6041653.791985588
576,6041634.942046127
578,6041492.350071866
580,6041431.717414882
582,6041479.343551435
584,6041473.589589243
586,6041763.069521747
588,6041968.215220798
590,6041705.365284989
592,6041435.1713147685
594,6041323.718621823
596,6041321.727128599
598,6041437.333713358
600,6041366.956225346
602,6041466.424228191
604,6041422.322912303
606,6041226.568093437
608,6041381.728169076
610,6041387.076563081
612,6041358.502772182
614,6041449.735011585
616,6041513.396540858
618,6041349.443484611
620,6041264.867874963
622,6041827.741022626
624,6042787.426799246
626,6042206.244386022
628,6042152.2377932
630,6042472.332767972
632,6039463.016732763
634,6040393.685311887
636,6043642.761310191
638,6040955.977543672
640,6040279.99770075
642,6042240.630335001
644,6041662.002311616
646,6040863.59945679
648,6040111.369046162
650,6038360.2890073005
652,6038521.768370929
654,6039910.454841106
656,6039425.929076893
658,6040313.792014924
660,6042494.346672375
662,6040851.633983277
664,6040509.6476092925
666,6042710.529389602
668,6041331.239517494
670,6041359.639906865
672,6041278.848636584
674,6041165.839692627
676,6041536.336237473
678,6041346.258063529
680,6041150.290873335
682,6041410.314827678
684,6041560.064690343
686,6041447.918786207
688,6040955.818939698
690,6041315.875338953
692,6041350.307975556
694,6041850.281893436
696,6041497.367671758
698,6041199.302168769
700,6041453.64627868
702,6041828.693192877
704,6040860.42770877
706,6041675.622792104
708,6041571.681644926
710,6041346.454989626
712,6041546.234560798
714,6041858.824615336
716,6041142.5820534965
718,6041286.403162461
720,6041703.1207177285
722,6041807.585318082
724,6041329.8607438
726,6041296.890614847
728,6041527.288726995
730,6041723.792105585
732,6041192.330811199
734,6041150.1016538385
736,6041704.398114255
738,6041255.137810724
740,6041344.973276121
742,6041402.044472554
744,6041509.896928869
746,6041611.23472158
748,6041281.529689905
750,6041392.455248062
752,6040981.1977447625
754,6041295.389267499
756,6041239.4416478425
758,6041271.659960353
760,6041533.037164191
762,6033170.558480699
764,5997309.196911797
766,5919816.184365741
768,5789128.623488824
770,5591227.92157777
772,5331562.926099856
774,5030824.995786329
776,4699258.250554136
778,4346757.545140255
780,3987299.429810042
782,3631624.3336451664
784,3286378.269654552
786,2964560.482130975
788,2677357.907088312
790,2431812.978824052
792,2227005.630354121
794,2056991.6675400746
796,1912122.286436368
798,1783069.2196949078
800,1663500.214270693
802,1548744.6415391257
804,1440089.3704584274
806,1338355.7413583586
808,1246002.4351940232
810,1164641.9993123675
812,1094313.8934356393
814,1033315.1507154639
816,979276.3012057306
818,928884.3489745458
820,880151.1850921786
822,831067.2044299131
824,781134.7456778135
826,731197.4373941015
828,682133.9307999852
830,635157.065687494
832,590767.9318637582
834,549817.9262336656
836,511926.9827578021
838,476508.58827418834
840,442988.8091633684
842,410512.7161371145
844,378885.83903410326
846,347759.8550145639
848,317145.038704723
850,286997.5341464601
852,257814.11993689087
854,229635.74166079867
856,202883.51438950063
858,177548.2583061767
860,153963.78261275878
862,132580.8515415665
864,113288.53811543316
866,96239.40874515912
868,81413.00428997858
870,68826.20859127876
872,58133.754868965356
874,49160.33286656182
876,41666.7751322839
878,35497.06635140222
880,30295.018445045593
882,25695.68578759554
884,21591.37521759164
886,17852.922836174053
888,14389.809163301048
890,11160.697668091325
892,8122.388938503005
894,5540.658797514908
896,3560.8201047046186
898,2067.8082667675035
900,1036.1379326991748
902,389.7262820249188
904,91.05201843704549
906,33.85408597934234
908,10.175341117526877
910,0.4798427012002451
912,-3.482973111878331
914,2.393407046365594
916,-5.54246237681494
918,-0.29287613119402345
920,-2.3379566926154904
922,4.289920058427215
924,0.9442159283387628
926,-2.7336637591896857
928,1.0006701908683229
930,-1.3057717257606596
932,1.5404292547943992
934,4.001179039549514
936,-1.414773894536123
938,3.248233771030033
940,0.4896997775772239
942,3.269850699677664
944,0.8757233738836303
946,1.835094323646329
948,-1.5911823412967454
950,0.22756291881490442
952,1.4645588048001232
954,3.043621082643513
956,0.027056986644400358
958,-0.10659459427895207
960,-0.7023202398106899
962,-2.0064684457895754
964,-3.0020412361544704
966,-2.2327748367148637
968,-2.2451702637504916
970,3.087313082970052
972,-1.474238603491238
974,-1.3750943045639343
976,0.09099228775895851
978,-4.359327552662422
980,0.17173412192045567
982,0.5883557203648353
984,-0.6237451035931326
986,0.24693956783995888
988,-1.1733774690472267
990,1.089032408027303
992,0.5823660453244227
994,0.22070109661222787
996,-2.4283186811864717
998,-1.410528741235163
1000,-1.602076920989911
1002,-0.0723170684905614
1004,-2.2803875418149437
1006,-0.15982876153475076
1008,-1.1915084778267833
1010,-1.9937058314243845
1012,1.598653035792643
1014,-0.6487785841223528
1016,2.324849570691117
1018,0.7091701747258704
