wave,flux
336,5.42515712814191
338,16.95827557618077
340,56.609610823099835
342,91.34635505942342
344,118.59173773493947
346,167.81699860333913
348,230.65433065706213
350,313.57237825863234
352,406.44849768462564
354,506.38714708639185
356,609.2626259454771
358,744.2299299244977
360,921.0949491354381
362,1143.8577548264432
364,1387.821220495622
366,1643.8757518762288
368,1929.7191493191974
370,2240.774944933722
372,2560.062134249523
374,2911.3109795601067
376,3315.717703738726
378,3798.309337618175
380,4404.339376984647
382,5217.668185759432
384,6507.2558729052525
386,8816.524362248314
388,12860.70575829612
390,19052.008764672813
392,26972.014434001045
394,35026.958137379625
396,41400.46632992762
398,45380.077765354414
400,48072.487120424004
402,51301.18968099854
404,56340.604935805124
406,63503.59107080003
408,72562.41569993521
410,83228.71348374142
412,95012.89214260854
414,106957.909514764
416,118245.13429120799
418,128808.21235074887
420,140147.77408608608
422,154859.572588992
424,175348.10170481566
426,202946.78077347975
428,236919.30685093522
430,275349.5484413995
432,315788.01247829664
434,356678.94596589863
436,397933.9668234799
438,440904.8336689083
440,486747.82178116497
442,535947.8203509704
444,588170.8363970463
446,642940.0824167044
448,700563.2621264016
450,762429.599366155
452,830181.6182229964
454,905518.2905946623
456,988451.1667346347
458,1076521.660411066
460,1165709.7885576563
462,1252508.5853284227
464,1331412.4610469213
466,1401382.2571740546
468,1463382.6476827143
470,1520290.3140713118
472,1575763.4907949662
474,1634286.8168215791
476,1699783.2762395935
478,1775139.5404874904
480,1862950.7905428149
482,1965277.8352361587
484,2082938.0095778317
486,2214219.032553776
488,2354614.866755169
490,2498334.8183665704
492,2635814.9969923794
494,2759016.177499762
496,2860850.320802141
498,2937835.966356406
500,2991613.1536081797
502,3028593.4713852485
504,3059655.9200362787
506,3100783.1827816176
508,3166883.656461154
510,3277040.5884205145
512,3444740.225532196
514,3676104.814660556
516,3959992.7433239063
518,4281221.965605695
520,4621996.627338843
522,4959192.223840931
524,5268461.763243542
526,5524427.918556401
528,5719956.393904402
530,5861428.096182892
532,5955185.7768345075
534,6010202.1926753465
536,6035460.05430973
538,6041964.827870315
540,6041234.403140359
542,6041579.371559964
544,6041623.284362754
546,6041426.202725802
548,6041384.839601302
550,6041692.051919516
552,6041279.0771099115
554,6041016.523811512
556,6041706.524556076
558,6041942.3971101595
560,6041672.456483242
562,6041856.423373933
564,6041742.677811246
566,6041747.820245676
568,6041086.0357256895
570,6041459.138856376
572,6041781.348542529
574,6041431.558241585
576,6041145.940612099
578,6041084.029004496
580,6041532.961554521
582,6041726.199513631
584,6041300.270988865
586,6041413.812972227
588,6041336.237773411
590,6041353.9687534105
592,6041666.1502247155
594,6041354.151611146
596,6040691.699782303
598,6041044.759900055
600,6041439.320603966
602,6041614.271459512
604,6041448.120013791
606,6041194.445437027
608,6041279.45194999
610,6041286.8625713615
612,6041341.866977765
614,6041465.1527649965
616,6041355.657903026
618,6040964.599818956
620,6041564.413598841
622,6042823.895241285
624,6042943.49826009
626,6041620.533580142
628,6041640.983893182
630,6043194.569508596
632,6042173.862376096
634,6040413.311701198
636,6040452.715459775
638,6042387.122148047
640,6042244.930688302
642,6041261.207703395
644,6042773.849906625
646,6042820.509222618
648,6041655.078319762
650,6041828.770910592
652,6041718.268776539
654,6041397.694838363
656,6041151.189853221
658,6041511.429479151
660,6041551.262238512
662,6041377.486710256
664,6041484.48743958
666,6041443.750089363
668,6041107.991048773
670,6041563.760999665
672,6041267.2062764475
674,6041163.483843256
676,6041536.128915831
678,6041346.24345349
680,6041150.289956291
682,6041410.314774397
684,6041560.064687422
686,6041447.9187860545
688,6040955.81893969
690,6041315.875338955
692,6041350.307975556
694,6041850.281893436
696,6041497.367671758
698,6041199.302168769
700,6041453.64627868
702,6041828.693192877
704,6040860.42770877
706,6041675.622792104
708,6041571.681644926
710,6041346.454989626
712,6041546.234560798
714,6041858.824615336
716,6041142.5820534965
718,6041286.403162461
720,6041703.1207177285
722,6041807.585318082
724,6041329.8607438
726,6041296.890614847
728,6041527.288726995
730,6041723.792105585
732,6041192.330811199
734,6041150.1016538385
736,6041704.398114255
738,6041255.137810724
740,6041344.973276121
742,6041402.044472554
744,6041509.896928869
746,6041611.23472158
748,6041281.529689905
750,6041392.455248062
752,6040981.1977447625
754,6041295.389267499
756,6041239.4416478425
758,6041271.659960353
760,6041533.037164191
762,6033170.558480699
764,5997309.196911797
766,5919816.184365741
768,5789128.623488824
770,5591227.92157777
772,5331562.926099856
774,5030824.995786329
776,4699258.250554136
778,4346757.545140255
780,3987299.429810042
782,3631624.3336451664
784,3286378.269654552
786,2964560.482130975
788,2677357.907088312
790,2431812.978824052
792,2227005.630354121
794,2056991.6675400746
796,1912122.286436368
798,1783069.2196949078
800,1663500.214270693
802,1548744.6415391257
804,1440089.3704584274
806,1338355.7413583586
808,1246002.4351940232
810,1164641.9993123675
812,1094313.8934356393
814,1033315.1507154639
816,979276.3012057306
818,928884.3489745458
820,880151.1850921786
822,831067.2044299131
824,781134.7456778135
826,731197.4373941015
828,682133.9307999852
830,635157.065687494
832,590767.9318637582
834,549817.9262336656
836,511926.9827578021
838,476508.58827418834
840,442988.8091633684
842,410512.7161371145
844,378885.83903410326
846,347759.8550145639
848,317145.038704723
850,286997.5341464601
852,257814.11993689087
854,229635.74166079867
856,202883.51438950063
858,177548.2583061767
860,153963.78261275878
862,132580.8515415665
864,113288.53811543316
866,96239.40874515912
868,81413.00428997858
870,68826.20859127876
872,58133.754868965356
874,49160.33286656182
876,41666.7751322839
878,35497.06635140222
880,30295.018445045593
882,25695.68578759554
884,21591.37521759164
886,17852.922836174053
888,14389.809163301048
890,11160.697668091325
892,8122.388938503005
894,5540.658797514908
896,3560.8201047046186
898,2067.8082667675035
900,1036.1379326991748
902,389.7262820249188
904,91.05201843704549
906,33.85408597934234
908,10.175341117526877
910,0.4798427012002451
912,-3.482973111878331
914,2.393407046365594
916,-5.54246237681494
918,-0.29287613119402345
920,-2.3379566926154904
922,4.289920058427215
924,0.9442159283387628
926,-2.7336637591896857
928,1.0006701908683229
930,-1.3057717257606596
932,1.5404292547943992
934,4.001179039549514
936,-1.414773894536123
938,3.248233771030033
940,0.4896997775772239
942,3.269850699677664
944,0.8757233738836303
946,1.835094323646329
948,-1.5911823412967454
950,0.22756291881490442
952,1.4645588048001232
954,3.043621082643513
956,0.027056986644400358
958,-0.10659459427895207
960,-0.7023202398106899
962,-2.0064684457895754
964,-3.0020412361544704
966,-2.2327748367148637
968,-2.2451702637504916
970,3.087313082970052
972,-1.474238603491238
974,-1.3750943045639343
976,0.09099228775895851
978,-4.359327552662422
980,0.17173412192045567
982,0.5883557203648353
984,-0.6237451035931326
986,0.24693956783995888
988,-1.1733774690472267
990,1.089032408027303
992,0.5823660453244227
994,0.22070109661222787
996,-2.4283186811864717
998,-1.410528741235163
1000,-1.602076920989911
1002,-0.0723170684905614
1004,-2.2803875418149437
1006,-0.15982876153475076
1008,-1.1915084778267833
1010,-1.9937058314243845
1012,1.598653035792643
1014,-0.6487785841223528
1016,2.324849570691117
1018,0.7091701747258704
