wave,flux
336,56.76460898528009
338,160.50799765393865
340,297.6150661095887
342,453.3060878175901
344,668.2562970983578
346,931.0415694564686
348,1231.8507861412293
350,1527.3255306828103
352,1880.5121396057727
354,2336.6049279825597
356,2859.6779423906655
358,3486.3393163868104
360,4255.513729440396
362,5086.906385749903
364,5915.286643694535
366,6776.5930030808095
368,7676.36515691987
370,8642.646586575302
372,9829.298795415942
374,11352.14301306959
376,13435.242119994151
378,16386.586638812594
380,20531.981081875525
382,26499.648109966834
384,35610.73605705949
386,49628.41614403038
388,69686.58312401557
390,95081.40689800578
392,124030.9169547868
394,153237.29542887874
396,181019.37310276274
398,206871.27102209607
400,232392.8544853087
402,257499.2197886884
404,280826.5662966406
406,300424.19373408984
408,317037.74606996594
410,333662.2275947731
412,353891.6147727672
414,379629.05817097006
416,410235.8051604538
418,443566.6282167396
420,477708.6152085591
422,513234.5803420717
424,552222.7714956822
426,596092.357353532
428,642742.7876329456
430,686030.9486148212
432,719860.0767081047
434,741288.3479763619
436,753322.2138935658
438,763008.9742525012
440,778029.7784062498
442,802944.5133361138
444,839598.0039008498
446,888416.3491031552
448,949338.1256106939
450,1023823.9222007853
452,1113587.5580765638
454,1222342.1691926816
456,1352028.7407286083
458,1499753.3153174503
460,1659363.9526343988
462,1823387.2706875086
464,1979315.0113192578
466,2121848.7200543205
468,2254849.9353200807
470,2385650.963453319
472,2529042.8319594488
474,2705147.2095756996
476,2934932.3445706926
478,3241837.8382924665
480,3621877.851416737
482,4055210.8334927987
484,4512585.028817283
486,4957926.891918693
488,5344322.48990987
490,5634896.372952485
492,5836280.692265841
494,5959109.655254282
496,6021341.760314742
498,6039921.4009580435
500,6041427.57090079
502,6041127.759137493
504,6041432.0669990815
506,6041553.452762569
508,6041209.17247567
510,6041630.667229615
512,6041225.538260755
514,6041247.293223089
516,6041512.454159905
518,6041460.901410961
520,6041579.739795145
522,6041632.800817956
524,6041352.718590199
526,6041281.262983014
528,6041167.25066435
530,6041538.894757453
532,6041627.775511074
534,6041373.559810889
536,6041128.979423886
538,6041190.615448683
540,6041414.442034464
542,6041144.810958587
544,6041618.464260191
546,6041987.534785817
548,6041484.335705926
550,6041314.863879782
552,6041189.037079079
554,6041677.381224869
556,6041539.010938056
558,6041373.487388471
560,6041350.044787292
562,6041144.300727727
564,6041279.314662061
566,6041338.408949727
568,6041669.434263424
570,6041588.935691006
572,6041302.984283597
574,6041570.609922391
576,6041584.852873436
578,6041263.786464244
580,6041328.427197187
582,6041441.90421308
584,6041313.693027219
586,6041577.366859717
588,6041620.731380205
590,6041691.559506817
592,6041380.532442083
594,6041162.9925988875
596,6041436.661363611
598,6041584.743487972
600,6041441.320005496
602,6041393.31368886
604,6041409.151794637
606,6041352.872664089
608,6041316.01601643
610,6041255.989069901
612,6040905.9302457115
614,6040813.771408068
616,6041532.031956165
618,6041932.02486107
620,6040568.154317129
622,6039214.856939205
624,6040666.848937218
626,6042682.174016424
628,6042251.360932567
630,6040046.132845241
632,6040291.829003006
634,6040131.863217291
636,6039643.776866086
638,6041536.301695083
640,6041433.520039179
642,6040207.134424816
644,6041306.965958708
646,6040682.117945661
648,6039218.475741671
650,6040640.017108789
652,6042449.02697325
654,6042370.308288302
656,6040373.900650918
658,6040237.142840216
660,6042867.072217522
662,6044557.811623506
664,6044059.93050122
666,6042051.227505297
668,6040733.623916149
670,6040804.107757226
672,6041476.588262506
674,6042009.679920332
676,6042015.699067768
678,6041777.82454342
680,6041518.298731984
682,6041321.849200994
684,6041270.468288634
686,6041447.308447879
688,6040955.825074531
690,6041315.875649933
692,6041350.307992134
694,6041850.281894449
696,6041497.367671835
698,6041199.302168775
700,6041453.64627868
702,6041828.693192877
704,6040860.42770877
706,6041675.622792104
708,6041571.681644926
710,6041346.454989626
712,6041546.234560798
714,6041858.824615336
716,6041142.5820534965
718,6041286.403162461
720,6041703.1207177285
722,6041807.585318082
724,6041329.8607438
726,6041296.890614847
728,6041527.288726995
730,6041723.792105585
732,6041192.330811199
734,6041150.1016538385
736,6041704.398114255
738,6041255.137810724
740,6041344.973276121
742,6041402.044472554
744,6041509.896928869
746,6041611.23472158
748,6041281.529689905
750,6041392.455248062
752,6040981.1977447625
754,6041295.389267499
756,6041239.4416478425
758,6041271.659960353
760,6041533.037164191
762,6033170.558480699
764,5997309.196911797
766,5919816.184365741
768,5789128.623488824
770,5591227.92157777
772,5331562.926099856
774,5030824.995786329
776,4699258.250554136
778,4346757.545140255
780,3987299.429810042
782,3631624.3336451664
784,3286378.269654552
786,2964560.482130975
788,2677357.907088312
790,2431812.978824052
792,2227005.630354121
794,2056991.6675400746
796,1912122.286436368
798,1783069.2196949078
800,1663500.214270693
802,1548744.6415391257
804,1440089.3704584274
806,1338355.7413583586
808,1246002.4351940232
810,1164641.9993123675
812,1094313.8934356393
814,1033315.1507154639
816,979276.3012057306
818,928884.3489745458
820,880151.1850921786
822,831067.2044299131
824,781134.7456778135
826,731197.4373941015
828,682133.9307999852
830,635157.065687494
832,590767.9318637582
834,549817.9262336656
836,511926.9827578021
838,476508.58827418834
840,442988.8091633684
842,410512.7161371145
844,378885.83903410326
846,347759.8550145639
848,317145.038704723
850,286997.5341464601
852,257814.11993689087
854,229635.74166079867
856,202883.51438950063
858,177548.2583061767
860,153963.78261275878
862,132580.8515415665
864,113288.53811543316
866,96239.40874515912
868,81413.00428997858
870,68826.20859127876
872,58133.754868965356
874,49160.33286656182
876,41666.7751322839
878,35497.06635140222
880,30295.018445045593
882,25695.68578759554
884,21591.37521759164
886,17852.922836174053
888,14389.809163301048
890,11160.697668091325
892,8122.388938503005
894,5540.658797514908
896,3560.8201047046186
898,2067.8082667675035
900,1036.1379326991748
902,389.7262820249188
904,91.05201843704549
906,33.85408597934234
908,10.175341117526877
910,0.4798427012002451
912,-3.482973111878331
914,2.393407046365594
916,-5.54246237681494
918,-0.29287613119402345
920,-2.3379566926154904
922,4.289920058427215
924,0.9442159283387628
926,-2.7336637591896857
928,1.0006701908683229
930,-1.3057717257606596
932,1.5404292547943992
934,4.001179039549514
936,-1.414773894536123
938,3.248233771030033
940,0.4896997775772239
942,3.269850699677664
944,0.8757233738836303
946,1.835094323646329
948,-1.5911823412967454
950,0.22756291881490442
952,1.4645588048001232
954,3.043621082643513
956,0.027056986644400358
958,-0.10659459427895207
960,-0.7023202398106899
962,-2.0064684457895754
964,-3.0020412361544704
966,-2.2327748367148637
968,-2.2451702637504916
970,3.087313082970052
972,-1.474238603491238
974,-1.3750943045639343
976,0.09099228775895851
978,-4.359327552662422
980,0.17173412192045567
982,0.5883557203648353
984,-0.6237451035931326
986,0.24693956783995888
988,-1.1733774690472267
990,1.089032408027303
992,0.5823660453244227
994,0.22070109661222787
996,-2.4283186811864717
998,-1.410528741235163
1000,-1.602076920989911
1002,-0.0723170684905614
1004,-2.2803875418149437
1006,-0.15982876153475076
1008,-1.1915084778267833
1010,-1.9937058314243845
1012,1.598653035792643
1014,-0.6487785841223528
1016,2.324849570691117
1018,0.7091701747258704
