wave,flux
336,8.817114959567803
338,58.29625699595493
340,186.09530698178372
342,372.1250578371786
344,621.0105143776606
346,946.4868891322587
348,1372.869179778919
350,1858.6842312453607
352,2391.7933705368823
354,3019.983236356751
356,3753.148850274116
358,4650.4691641754325
360,5788.334733255836
362,7184.863273835657
364,8756.05001644881
366,10557.884076799008
368,12675.631656468737
370,15127.294686135123
372,17862.456490685978
374,20877.651843574116
376,24277.50402928931
378,28255.005486437967
380,32947.64721725783
382,38731.81038616046
384,46673.20689483035
386,58813.20771307743
388,77712.4456987189
390,105603.46397525175
392,143568.77107994675
394,189409.74900054422
396,239024.38047136102
398,288181.2542820818
400,336589.88483205833
402,385462.8157652641
404,436109.96112740773
406,488171.53773234936
408,541016.1943193394
410,594237.5447654484
412,647408.1168217058
414,700120.7425082397
416,753076.9273571237
418,807580.2682054233
420,867096.7365758443
422,935306.3417255012
424,1015748.1418605312
426,1110096.1409063865
428,1216494.6365617784
430,1329812.1146487223
432,1444481.2940532751
434,1556916.9305459864
436,1667702.5996101515
438,1781906.364405143
440,1906135.9031671472
442,2045022.8204339973
444,2200275.7751851804
446,2369126.1806124575
448,2549016.894360273
450,2737330.3334540296
452,2933273.395000999
454,3138041.3441912597
456,3352814.053209863
458,3577124.2346671196
460,3809077.0592939714
462,4043015.836820874
464,4273070.912274868
466,4497527.237132027
468,4717904.535555161
470,4939446.693187319
472,5159435.467437122
474,5372047.907511367
476,5569727.631294352
478,5739893.946946317
480,5867714.325245499
482,5954525.813780161
484,6007105.19207281
486,6032789.064780376
488,6041049.653865914
490,6041459.254697839
492,6041179.136385175
494,6041262.554191216
496,6041667.219401517
498,6041269.906996639
500,6041510.307652514
502,6041429.465398735
504,6041623.492853326
506,6041872.589411685
508,6041639.053520456
510,6041521.803071061
512,6041458.618362899
514,6041430.130342322
516,6041423.550920978
518,6041759.710347244
520,6041645.278007087
522,6041475.798486234
524,6041647.729200393
526,6041311.267333562
528,6040912.724137956
530,6041886.935524746
532,6041346.428558323
534,6041557.37378334
536,6041344.417983878
538,6041103.014799637
540,6041493.404637739
542,6041431.605685325
544,6041498.632483917
546,6041276.836055997
548,6041377.610877391
550,6041178.6309769945
552,6041026.856831866
554,6041817.08733101
556,6041778.170929343
558,6041471.775331889
560,6041352.910536492
562,6041388.335442538
564,6041254.188494758
566,6041315.685651898
568,6041757.818283765
570,6041481.612669412
572,6041199.274803054
574,6041081.170210325
576,6040974.266982106
578,6041321.209973799
580,6041316.473702844
582,6041387.401119563
584,6041782.317861528
586,6041246.640071472
588,6041596.763677193
590,6041695.614159198
592,6041419.422803943
594,6041176.868999948
596,6041146.725042441
598,6041249.775201794
600,6041209.846080081
602,6041422.904611592
604,6041530.57893183
606,6041613.396280293
608,6041997.553530408
610,6041271.0458311085
612,6041180.521756677
614,6041625.977857629
616,6041138.578582892
618,6041087.9956219345
620,6042298.021062848
622,6042576.184539144
624,6040342.692734436
626,6040856.734356904
628,6042800.116045846
630,6042923.1747802375
632,6041332.556395708
634,6041605.415196363
636,6042997.799239665
638,6041779.053885139
640,6040905.387176562
642,6041591.3165016305
644,6042399.531694575
646,6041625.923808611
648,6040612.456905278
650,6041325.853366001
652,6040565.885282284
654,6039655.243512198
656,6042669.2629436
658,6044350.292792275
660,6042226.572242332
662,6040344.7091208035
664,6040773.804407839
666,6042926.745161981
668,6042834.151758271
670,6040860.501122088
672,6040696.581088512
674,6041434.150864165
676,6041504.457252085
678,6041323.403524937
680,6041149.065488034
682,6041410.2436304595
684,6041560.060787585
686,6041447.918581698
688,6040955.818929295
690,6041315.875338426
692,6041350.307975527
694,6041850.281893434
696,6041497.367671758
698,6041199.302168769
700,6041453.64627868
702,6041828.693192877
704,6040860.42770877
706,6041675.622792104
708,6041571.681644926
710,6041346.454989626
712,6041546.234560798
714,6041858.824615336
716,6041142.5820534965
718,6041286.403162461
720,6041703.1207177285
722,6041807.585318082
724,6041329.8607438
726,6041296.890614847
728,6041527.288726995
730,6041723.792105585
732,6041192.330811199
734,6041150.1016538385
736,6041704.398114255
738,6041255.137810724
740,6041344.973276121
742,6041402.044472554
744,6041509.896928869
746,6041611.23472158
748,6041281.529689905
750,6041392.455248062
752,6040981.1977447625
754,6041295.389267499
756,6041239.4416478425
758,6041271.659960353
760,6041533.037164191
762,6033170.558480699
764,5997309.196911797
766,5919816.184365741
768,5789128.623488824
770,5591227.92157777
772,5331562.926099856
774,5030824.995786329
776,4699258.250554136
778,4346757.545140255
780,3987299.429810042
782,3631624.3336451664
784,3286378.269654552
786,2964560.482130975
788,2677357.907088312
790,2431812.978824052
792,2227005.630354121
794,2056991.6675400746
796,1912122.286436368
798,1783069.2196949078
800,1663500.214270693
802,1548744.6415391257
804,1440089.3704584274
806,1338355.7413583586
808,1246002.4351940232
810,1164641.9993123675
812,1094313.8934356393
814,1033315.1507154639
816,979276.3012057306
818,928884.3489745458
820,880151.1850921786
822,831067.2044299131
824,781134.7456778135
826,731197.4373941015
828,682133.9307999852
830,635157.065687494
832,590767.9318637582
834,549817.9262336656
836,511926.9827578021
838,476508.58827418834
840,442988.8091633684
842,410512.7161371145
844,378885.83903410326
846,347759.8550145639
848,317145.038704723
850,286997.5341464601
852,257814.11993689087
854,229635.74166079867
856,202883.51438950063
858,177548.2583061767
860,153963.78261275878
862,132580.8515415665
864,113288.53811543316
866,96239.40874515912
868,81413.00428997858
870,68826.20859127876
872,58133.754868965356
874,49160.33286656182
876,41666.7751322839
878,35497.06635140222
880,30295.018445045593
882,25695.68578759554
884,21591.37521759164
886,17852.922836174053
888,14389.809163301048
890,11160.697668091325
892,8122.388938503005
894,5540.658797514908
896,3560.8201047046186
898,2067.8082667675035
900,1036.1379326991748
902,389.7262820249188
904,91.05201843704549
906,33.85408597934234
908,10.175341117526877
910,0.4798427012002451
912,-3.482973111878331
914,2.393407046365594
916,-5.54246237681494
918,-0.29287613119402345
920,-2.3379566926154904
922,4.289920058427215
924,0.9442159283387628
926,-2.7336637591896857
928,1.0006701908683229
930,-1.3057717257606596
932,1.5404292547943992
934,4.001179039549514
936,-1.414773894536123
938,3.248233771030033
940,0.4896997775772239
942,3.269850699677664
944,0.8757233738836303
946,1.835094323646329
948,-1.5911823412967454
950,0.22756291881490442
952,1.4645588048001232
954,3.043621082643513
956,0.027056986644400358
958,-0.10659459427895207
960,-0.7023202398106899
962,-2.0064684457895754
964,-3.0020412361544704
966,-2.2327748367148637
968,-2.2451702637504916
970,3.087313082970052
972,-1.474238603491238
974,-1.3750943045639343
976,0.09099228775895851
978,-4.359327552662422
980,0.17173412192045567
982,0.5883557203648353
984,-0.6237451035931326
986,0.24693956783995888
988,-1.1733774690472267
990,1.089032408027303
992,0.5823660453244227
994,0.22070109661222787
996,-2.4283186811864717
998,-1.410528741235163
1000,-1.602076920989911
1002,-0.0723170684905614
1004,-2.2803875418149437
1006,-0.15982876153475076
1008,-1.1915084778267833
1010,-1.9937058314243845
1012,1.598653035792643
1014,-0.6487785841223528
1016,2.324849570691117
1018,0.7091701747258704
