wave,flux
336,15.589099513284019
338,131.42591612187547
340,394.40097533988273
342,759.5466300612466
344,1193.4367803198472
346,1770.17991388699
348,2519.9208424033236
350,3345.6298037270276
352,4238.975393641494
354,5254.287360281945
356,6480.818013755808
358,8084.076397886473
360,10273.36977158424
362,12941.89392909384
364,15739.995144236053
366,18757.3448679342
368,22354.59877493072
370,26520.557720544803
372,31055.565065601135
374,35933.922961338154
376,41462.88335280512
378,48015.672876140634
380,55884.14253674911
382,66032.7204013133
384,80999.78756195868
386,105167.83816360022
388,143427.50382773927
390,198052.3572882536
392,267194.33081703883
394,344254.838706631
396,421926.4147164892
398,496125.0662221144
400,568055.795953066
402,641999.2277419623
404,720275.8891948636
406,801958.5287578616
408,883625.8256837049
410,961573.5225594103
412,1034371.2129855567
414,1103277.9751390817
416,1173015.1878611823
418,1251625.0964118796
420,1349529.5677817662
422,1475926.9561903924
424,1636516.7215625206
426,1828123.915285528
428,2037463.55693692
430,2242702.0058982978
432,2425595.618296981
434,2577007.78592102
436,2704431.957857293
438,2828409.6632899316
440,2969905.5644703615
442,3142808.337708928
444,3347704.089488879
446,3574708.881190785
448,3812405.0072255475
450,4051226.5118486485
452,4289768.9970757635
454,4531986.068915825
456,4784712.907746768
458,5045421.830520064
460,5301798.683101469
462,5538582.418754066
464,5736077.855357361
466,5878580.771848863
468,5968887.8891360015
470,6017371.169063021
472,6037209.508123685
474,6041271.294099893
476,6041487.530534048
478,6041411.221810554
480,6041509.303302881
482,6041298.930189646
484,6041083.406886072
486,6041627.679592603
488,6041436.760431894
490,6041437.850862768
492,6041308.295393382
494,6041135.907883385
496,6041387.8842170015
498,6041413.107820776
500,6041484.835723714
502,6041565.170913759
504,6041055.48938598
506,6041499.627422243
508,6041264.476814867
510,6041319.798339443
512,6041670.625580584
514,6041524.65877556
516,6041648.111312841
518,6041163.424385807
520,6041458.771916274
522,6041229.346125354
524,6041744.431694208
526,6041169.611182552
528,6041687.080065107
530,6041457.06118409
532,6041986.961529812
534,6041456.549029439
536,6041465.9480995815
538,6041373.013800135
540,6041535.520680776
542,6041167.193839549
544,6041799.98632515
546,6041349.959736315
548,6041171.620492724
550,6041428.136454666
552,6041414.999328068
554,6041637.936644555
556,6041537.61041829
558,6041615.396444832
560,6041473.636150271
562,6041071.415370013
564,6041011.279210736
566,6041567.735351676
568,6041572.444721825
570,6041408.276108417
572,6041223.612360749
574,6041487.457502884
576,6041637.720650575
578,6041616.261941792
580,6041457.833714032
582,6041599.373689551
584,6041715.641510159
586,6041157.500027405
588,6041683.973711507
590,6041648.476692987
592,6041452.779764356
594,6041437.61563981
596,6041380.905182015
598,6041324.022892196
600,6041118.086647655
602,6041091.192711798
604,6041244.701061862
606,6041411.2562893
608,6041522.596404713
610,6041477.812733538
612,6041432.130337108
614,6041473.905926896
616,6041408.248846031
618,6040867.823418495
620,6040081.708338642
622,6039644.423902993
624,6040005.582561753
626,6040896.618097307
628,6041791.286814444
630,6042147.272268868
632,6041724.050801703
634,6041273.3549024705
636,6040870.395189309
638,6040238.853699856
640,6040839.762670455
642,6042021.839501485
644,6042135.193323668
646,6042228.978632202
648,6042949.44305882
650,6043756.931091527
652,6042710.453202129
654,6040565.388285398
656,6040019.336098721
658,6040677.038904578
660,6041009.895231676
662,6039651.26791601
664,6039094.633698798
666,6041267.65677651
668,6043030.1625064835
670,6042960.597649053
672,6041817.185550568
674,6040753.111742141
676,6040819.82765987
678,6042526.484837813
680,6044331.545186358
682,6043413.833115267
684,6041225.639118114
686,6040318.349028292
688,6040522.929326227
690,6041107.015448538
692,6041338.24283184
694,6041849.548722044
696,6041497.312429083
698,6041199.297143408
700,6041453.645773256
702,6041828.693140741
704,6040860.427703475
706,6041675.622791584
708,6041571.681644878
710,6041346.454989622
712,6041546.234560798
714,6041858.824615336
716,6041142.5820534965
718,6041286.403162461
720,6041703.1207177285
722,6041807.585318082
724,6041329.8607438
726,6041296.890614847
728,6041527.288726995
730,6041723.792105585
732,6041192.330811199
734,6041150.1016538385
736,6041704.398114255
738,6041255.137810724
740,6041344.973276121
742,6041402.044472554
744,6041509.896928869
746,6041611.23472158
748,6041281.529689905
750,6041392.455248062
752,6040981.1977447625
754,6041295.389267499
756,6041239.4416478425
758,6041271.659960353
760,6041533.037164191
762,6033170.558480699
764,5997309.196911797
766,5919816.184365741
768,5789128.623488824
770,5591227.92157777
772,5331562.926099856
774,5030824.995786329
776,4699258.250554136
778,4346757.545140255
780,3987299.429810042
782,3631624.3336451664
784,3286378.269654552
786,2964560.482130975
788,2677357.907088312
790,2431812.978824052
792,2227005.630354121
794,2056991.6675400746
796,1912122.286436368
798,1783069.2196949078
800,1663500.214270693
802,1548744.6415391257
804,1440089.3704584274
806,1338355.7413583586
808,1246002.4351940232
810,1164641.9993123675
812,1094313.8934356393
814,1033315.1507154639
816,979276.3012057306
818,928884.3489745458
820,880151.1850921786
822,831067.2044299131
824,781134.7456778135
826,731197.4373941015
828,682133.9307999852
830,635157.065687494
832,590767.9318637582
834,549817.9262336656
836,511926.9827578021
838,476508.58827418834
840,442988.8091633684
842,410512.7161371145
844,378885.83903410326
846,347759.8550145639
848,317145.038704723
850,286997.5341464601
852,257814.11993689087
854,229635.74166079867
856,202883.51438950063
858,177548.2583061767
860,153963.78261275878
862,132580.8515415665
864,113288.53811543316
866,96239.40874515912
868,81413.00428997858
870,68826.20859127876
872,58133.754868965356
874,49160.33286656182
876,41666.7751322839
878,35497.06635140222
880,30295.018445045593
882,25695.68578759554
884,21591.37521759164
886,17852.922836174053
888,14389.809163301048
890,11160.697668091325
892,8122.388938503005
894,5540.658797514908
896,3560.8201047046186
898,2067.8082667675035
900,1036.1379326991748
902,389.7262820249188
904,91.05201843704549
906,33.85408597934234
908,10.175341117526877
910,0.4798427012002451
912,-3.482973111878331
914,2.393407046365594
916,-5.54246237681494
918,-0.29287613119402345
920,-2.3379566926154904
922,4.289920058427215
924,0.9442159283387628
926,-2.7336637591896857
928,1.0006701908683229
930,-1.3057717257606596
932,1.5404292547943992
934,4.001179039549514
936,-1.414773894536123
938,3.248233771030033
940,0.4896997775772239
942,3.269850699677664
944,0.8757233738836303
946,1.835094323646329
948,-1.5911823412967454
950,0.22756291881490442
952,1.4645588048001232
954,3.043621082643513
956,0.027056986644400358
958,-0.10659459427895207
960,-0.7023202398106899
962,-2.0064684457895754
964,-3.0020412361544704
966,-2.2327748367148637
968,-2.2451702637504916
970,3.087313082970052
972,-1.474238603491238
974,-1.3750943045639343
976,0.09099228775895851
978,-4.359327552662422
980,0.17173412192045567
982,0.5883557203648353
984,-0.6237451035931326
986,0.24693956783995888
988,-1.1733774690472267
990,1.089032408027303
992,0.5823660453244227
994,0.22070109661222787
996,-2.4283186811864717
998,-1.410528741235163
1000,-1.602076920989911
1002,-0.0723170684905614
1004,-2.2803875418149437
1006,-0.15982876153475076
1008,-1.1915084778267833
1010,-1.9937058314243845
1012,1.598653035792643
1014,-0.6487785841223528
1016,2.324849570691117
1018,0.7091701747258704
