wave,flux
336,5.203086445290852
338,22.46745884933073
340,55.30262704228032
342,81.73915646015276
344,98.7949858552232
346,133.20445599877252
348,194.32514296541893
350,250.79706663297318
352,290.13430489270746
354,330.7169805068687
356,371.5332420535861
358,499.45754691496643
360,869.1951862776024
362,1414.27937177803
364,1837.7716581741126
366,2121.0840021009094
368,2419.3288524652307
370,2758.204108865681
372,3088.763920215284
374,3472.4051429818282
376,4211.6087801228905
378,5600.281329826153
380,7601.23642982126
382,9745.439345344246
384,12604.899050477057
386,17556.954654686862
388,26206.998685033577
390,44817.966781576666
392,89653.84596398962
394,159475.24192692954
396,238400.73532326022
398,295182.4693539434
400,330226.3665210921
402,352781.87485449814
404,378575.3677441181
406,407742.045286575
408,437915.7238619505
410,467667.6593297776
412,497322.27955127443
414,528200.8516141813
416,562170.6333282472
418,602533.0099554182
420,653824.0719459602
422,721063.0442090561
424,808019.9436893339
426,916284.6605536314
428,1040816.4865910145
430,1164995.6154691
432,1263952.7542898734
434,1316035.4481224748
436,1315143.8015682532
438,1276402.4328569411
440,1228217.257669013
442,1195226.7040550166
444,1191480.1016912623
446,1220261.4109882405
448,1280796.13853453
450,1376598.5215122239
452,1520555.2452395202
454,1740829.5434713038
456,2066020.2253962343
458,2503002.421713519
460,3035667.8202641825
462,3625686.0306881024
464,4211014.343154448
466,4736360.1369564505
468,5165662.436457453
470,5492608.468285938
472,5724422.899782806
474,5872549.217184479
476,5961045.12846018
478,6010463.540980084
480,6034920.565017674
482,6041767.357420975
484,6041293.723445656
486,6041086.758970331
488,6041493.732281713
490,6041016.325252457
492,6041594.449963173
494,6041158.974157579
496,6041366.418226278
498,6041585.783434909
500,6041270.944454823
502,6041715.021528998
504,6041363.691893901
506,6041894.261115524
508,6041184.026638292
510,6041735.479344636
512,6041005.402687665
514,6041241.512403977
516,6040922.175924216
518,6041381.7763696015
520,6041726.971592996
522,6041509.035931544
524,6041160.969413265
526,6041868.495888112
528,6041609.089245329
530,6041249.315594385
532,6041515.803179098
534,6041387.191653641
536,6041571.950749751
538,6041514.770171502
540,6041252.894968032
542,6041394.269746487
544,6041710.820461967
546,6041034.907820011
548,6041520.326759081
550,6041760.154267615
552,6041443.761039076
554,6041539.354863323
556,6041522.7623159615
558,6041214.372680423
560,6041098.032322034
562,6041454.558371114
564,6041574.470061057
566,6041277.577604988
568,6041299.978065793
570,6041462.260164354
572,6041510.117552744
574,6041620.229105174
576,6041252.554692988
578,6041522.492249307
580,6041795.970377997
582,6041536.4901199
584,6041443.949088737
586,6041346.187803892
588,6041194.7408368485
590,6041136.138403443
592,6040939.914716292
594,6041079.146247099
596,6041367.795772777
598,6041142.417915329
600,6041524.816068718
602,6041508.477385334
604,6041298.994964944
606,6041429.887433911
608,6041519.821219351
610,6041327.884369429
612,6041203.102693556
614,6041505.780164156
616,6041888.678001262
618,6041276.427791554
620,6040527.413088442
622,6040304.594656693
624,6040450.784501061
626,6040775.814852523
628,6040182.739159628
630,6039551.408990094
632,6041619.626347106
634,6042318.834160303
636,6041796.151344707
638,6043584.249589577
640,6042950.037214482
642,6040555.854570604
644,6041061.247324415
646,6044202.258154902
648,6045862.302071437
650,6042689.464619337
652,6040493.156591315
654,6041007.6679781135
656,6041137.979732919
658,6041510.578524937
660,6041551.2377728745
662,6041377.487220299
664,6041484.487538486
666,6041443.750096242
668,6041107.991049091
670,6041563.760999673
672,6041267.206276448
674,6041163.483843256
676,6041536.128915831
678,6041346.24345349
680,6041150.289956291
682,6041410.314774397
684,6041560.064687422
686,6041447.9187860545
688,6040955.81893969
690,6041315.875338955
692,6041350.307975556
694,6041850.281893436
696,6041497.367671758
698,6041199.302168769
700,6041453.64627868
702,6041828.693192877
704,6040860.42770877
706,6041675.622792104
708,6041571.681644926
710,6041346.454989626
712,6041546.234560798
714,6041858.824615336
716,6041142.5820534965
718,6041286.403162461
720,6041703.1207177285
722,6041807.585318082
724,6041329.8607438
726,6041296.890614847
728,6041527.288726995
730,6041723.792105585
732,6041192.330811199
734,6041150.1016538385
736,6041704.398114255
738,6041255.137810724
740,6041344.973276121
742,6041402.044472554
744,6041509.896928869
746,6041611.23472158
748,6041281.529689905
750,6041392.455248062
752,6040981.1977447625
754,6041295.389267499
756,6041239.4416478425
758,6041271.659960353
760,6041533.037164191
762,6033170.558480699
764,5997309.196911797
766,5919816.184365741
768,5789128.623488824
770,5591227.92157777
772,5331562.926099856
774,5030824.995786329
776,4699258.250554136
778,4346757.545140255
780,3987299.429810042
782,3631624.3336451664
784,3286378.269654552
786,2964560.482130975
788,2677357.907088312
790,2431812.978824052
792,2227005.630354121
794,2056991.6675400746
796,1912122.286436368
798,1783069.2196949078
800,1663500.214270693
802,1548744.6415391257
804,1440089.3704584274
806,1338355.7413583586
808,1246002.4351940232
810,1164641.9993123675
812,1094313.8934356393
814,1033315.1507154639
816,979276.3012057306
818,928884.3489745458
820,880151.1850921786
822,831067.2044299131
824,781134.7456778135
826,731197.4373941015
828,682133.9307999852
830,635157.065687494
832,590767.9318637582
834,549817.9262336656
836,511926.9827578021
838,476508.58827418834
840,442988.8091633684
842,410512.7161371145
844,378885.83903410326
846,347759.8550145639
848,317145.038704723
850,286997.5341464601
852,257814.11993689087
854,229635.74166079867
856,202883.51438950063
858,177548.2583061767
860,153963.78261275878
862,132580.8515415665
864,113288.53811543316
866,96239.40874515912
868,81413.00428997858
870,68826.20859127876
872,58133.754868965356
874,49160.33286656182
876,41666.7751322839
878,35497.06635140222
880,30295.018445045593
882,25695.68578759554
884,21591.37521759164
886,17852.922836174053
888,14389.809163301048
890,11160.697668091325
892,8122.388938503005
894,5540.658797514908
896,3560.8201047046186
898,2067.8082667675035
900,1036.1379326991748
902,389.7262820249188
904,91.05201843704549
906,33.85408597934234
908,10.175341117526877
910,0.4798427012002451
912,-3.482973111878331
914,2.393407046365594
916,-5.54246237681494
918,-0.29287613119402345
920,-2.3379566926154904
922,4.289920058427215
924,0.9442159283387628
926,-2.7336637591896857
928,1.0006701908683229
930,-1.3057717257606596
932,1.5404292547943992
934,4.001179039549514
936,-1.414773894536123
938,3.248233771030033
940,0.4896997775772239
942,3.269850699677664
944,0.8757233738836303
946,1.835094323646329
948,-1.5911823412967454
950,0.22756291881490442
952,1.4645588048001232
954,3.043621082643513
956,0.027056986644400358
958,-0.10659459427895207
960,-0.7023202398106899
962,-2.0064684457895754
964,-3.0020412361544704
966,-2.2327748367148637
968,-2.2451702637504916
970,3.087313082970052
972,-1.474238603491238
974,-1.3750943045639343
976,0.09099228775895851
978,-4.359327552662422
980,0.17173412192045567
982,0.5883557203648353
984,-0.6237451035931326
986,0.24693956783995888
988,-1.1733774690472267
990,1.089032408027303
992,0.5823660453244227
994,0.22070109661222787
996,-2.4283186811864717
998,-1.410528741235163
1000,-1.602076920989911
1002,-0.0723170684905614
1004,-2.2803875418149437
1006,-0.15982876153475076
1008,-1.1915084778267833
1010,-1.9937058314243845
1012,1.598653035792643
1014,-0.6487785841223528
1016,2.324849570691117
1018,0.7091701747258704
