wave,flux
336,13.60693311504913
338,126.68250725714906
340,384.279130444599
342,740.864889693449
344,1197.20987620173
346,1832.337646081211
348,2609.26727134084
350,3484.6162207621137
352,4508.63918499241
354,5792.605614708303
356,7344.359717789408
358,9279.666152837364
360,11853.792393185848
362,15050.090960210011
364,18588.716920395836
366,22588.94736746598
368,27298.05047886461
370,32680.050643106017
372,38707.849826838275
374,45434.76300990091
376,53124.44879141475
378,62012.22684453357
380,72501.02376440277
382,85375.06104007679
384,103112.71281856849
386,130019.00596928969
388,171148.45803082013
390,231465.07494264026
392,313865.50437798264
394,412391.976004683
396,516264.55909119744
398,614283.2756436919
400,707792.6328193534
402,801584.820759532
404,899646.7221665621
406,1000309.2982599521
408,1102217.4353735165
410,1206120.0243115348
412,1316671.1018392898
414,1437751.04018161
416,1571987.2828739386
418,1720543.2751158609
420,1883906.7604224896
422,2066406.2754521905
424,2274471.982650388
426,2511885.3596244548
428,2774720.8901457908
430,3048183.212490547
432,3312313.5346304444
434,3552826.4177022655
436,3770166.0400700676
438,3980914.626874199
440,4205392.041116231
442,4459508.734647379
444,4746971.400244171
446,5052676.875540238
448,5347324.922183214
450,5604942.058587434
452,5803805.248600786
454,5930863.990463566
456,6002074.04509751
458,6033541.054957136
460,6041461.734157877
462,6041826.810950799
464,6041683.8737427015
466,6041124.06411361
468,6041438.022303733
470,6041781.925387278
472,6041260.629767877
474,6041721.294296103
476,6041104.736270638
478,6041839.729965168
480,6041521.582701877
482,6041584.044482761
484,6041365.17313226
486,6041155.957488955
488,6041505.109321039
490,6041484.8220357625
492,6041393.187304259
494,6040953.800727826
496,6041724.462465663
498,6041425.09368068
500,6041713.301310584
502,6041238.885056891
504,6041807.091679072
506,6041458.730864771
508,6041477.651655298
510,6041144.274210838
512,6041508.302491535
514,6041589.050983457
516,6041288.352650053
518,6041675.88441282
520,6041168.581390701
522,6041235.136881341
524,6041651.984977055
526,6041621.142693771
528,6041329.76949197
530,6041068.259585915
532,6041693.64528911
534,6041324.376870207
536,6041629.48217814
538,6041569.871911295
540,6041532.159265563
542,6041394.450745472
544,6041670.1983654015
546,6041447.415420064
548,6040955.651854059
550,6041377.749514512
552,6041610.71747224
554,6041389.810476127
556,6041261.517390157
558,6041554.301500802
560,6041839.247150703
562,6041637.186425363
564,6041622.316056774
566,6041669.298160752
568,6041262.877527417
570,6041535.073068111
572,6041606.708156451
574,6041549.703696499
576,6041237.599839574
578,6041414.919274457
580,6041510.751078645
582,6041182.065043929
584,6041330.540110111
586,6041775.032131103
588,6041361.559559302
590,6041395.674801746
592,6041238.223903845
594,6041344.621641325
596,6041614.765995071
598,6040947.840220677
600,6041063.678242666
602,6041730.534880479
604,6041692.930093422
606,6041069.05406773
608,6041108.1727662105
610,6041343.274321079
612,6041490.080514118
614,6041570.893382838
616,6041678.733596236
618,6041796.4802815765
620,6041718.059151889
622,6040381.582634849
624,6038467.026181757
626,6041312.807538898
628,6042757.59525145
630,6040021.358146294
632,6040812.687244711
634,6040937.987832501
636,6040224.299225155
638,6042876.27740982
640,6043371.247431532
642,6041628.611187516
644,6041607.17138864
646,6041841.298408551
648,6041643.285721284
650,6041400.955707962
652,6041705.7651430825
654,6041397.689684099
656,6041151.216816969
658,6041511.43121607
660,6041551.262288449
662,6041377.486709214
664,6041484.487439378
666,6041443.750089349
668,6041107.991048771
670,6041563.760999665
672,6041267.2062764475
674,6041163.483843256
676,6041536.128915831
678,6041346.24345349
680,6041150.289956291
682,6041410.314774397
684,6041560.064687422
686,6041447.9187860545
688,6040955.81893969
690,6041315.875338955
692,6041350.307975556
694,6041850.281893436
696,6041497.367671758
698,6041199.302168769
700,6041453.64627868
702,6041828.693192877
704,6040860.42770877
706,6041675.622792104
708,6041571.681644926
710,6041346.454989626
712,6041546.234560798
714,6041858.824615336
716,6041142.5820534965
718,6041286.403162461
720,6041703.1207177285
722,6041807.585318082
724,6041329.8607438
726,6041296.890614847
728,6041527.288726995
730,6041723.792105585
732,6041192.330811199
734,6041150.1016538385
736,6041704.398114255
738,6041255.137810724
740,6041344.973276121
742,6041402.044472554
744,6041509.896928869
746,6041611.23472158
748,6041281.529689905
750,6041392.455248062
752,6040981.1977447625
754,6041295.389267499
756,6041239.4416478425
758,6041271.659960353
760,6041533.037164191
762,6033170.558480699
764,5997309.196911797
766,5919816.184365741
768,5789128.623488824
770,5591227.92157777
772,5331562.926099856
774,5030824.995786329
776,4699258.250554136
778,4346757.545140255
780,3987299.429810042
782,3631624.3336451664
784,3286378.269654552
786,2964560.482130975
788,2677357.907088312
790,2431812.978824052
792,2227005.630354121
794,2056991.6675400746
796,1912122.286436368
798,1783069.2196949078
800,1663500.214270693
802,1548744.6415391257
804,1440089.3704584274
806,1338355.7413583586
808,1246002.4351940232
810,1164641.9993123675
812,1094313.8934356393
814,1033315.1507154639
816,979276.3012057306
818,928884.3489745458
820,880151.1850921786
822,831067.2044299131
824,781134.7456778135
826,731197.4373941015
828,682133.9307999852
830,635157.065687494
832,590767.9318637582
834,549817.9262336656
836,511926.9827578021
838,476508.58827418834
840,442988.8091633684
842,410512.7161371145
844,378885.83903410326
846,347759.8550145639
848,317145.038704723
850,286997.5341464601
852,257814.11993689087
854,229635.74166079867
856,202883.51438950063
858,177548.2583061767
860,153963.78261275878
862,132580.8515415665
864,113288.53811543316
866,96239.40874515912
868,81413.00428997858
870,68826.20859127876
872,58133.754868965356
874,49160.33286656182
876,41666.7751322839
878,35497.06635140222
880,30295.018445045593
882,25695.68578759554
884,21591.37521759164
886,17852.922836174053
888,14389.809163301048
890,11160.697668091325
892,8122.388938503005
894,5540.658797514908
896,3560.8201047046186
898,2067.8082667675035
900,1036.1379326991748
902,389.7262820249188
904,91.05201843704549
906,33.85408597934234
908,10.175341117526877
910,0.4798427012002451
912,-3.482973111878331
914,2.393407046365594
916,-5.54246237681494
918,-0.29287613119402345
920,-2.3379566926154904
922,4.289920058427215
924,0.9442159283387628
926,-2.7336637591896857
928,1.0006701908683229
930,-1.3057717257606596
932,1.5404292547943992
934,4.001179039549514
936,-1.414773894536123
938,3.248233771030033
940,0.4896997775772239
942,3.269850699677664
944,0.8757233738836303
946,1.835094323646329
948,-1.5911823412967454
950,0.22756291881490442
952,1.4645588048001232
954,3.043621082643513
956,0.027056986644400358
958,-0.10659459427895207
960,-0.7023202398106899
962,-2.0064684457895754
964,-3.0020412361544704
966,-2.2327748367148637
968,-2.2451702637504916
970,3.087313082970052
972,-1.474238603491238
974,-1.3750943045639343
976,0.09099228775895851
978,-4.359327552662422
980,0.17173412192045567
982,0.5883557203648353
984,-0.6237451035931326
986,0.24693956783995888
988,-1.1733774690472267
990,1.089032408027303
992,0.5823660453244227
994,0.22070109661222787
996,-2.4283186811864717
998,-1.410528741235163
1000,-1.602076920989911
1002,-0.0723170684905614
1004,-2.2803875418149437
1006,-0.15982876153475076
1008,-1.1915084778267833
1010,-1.9937058314243845
1012,1.598653035792643
1014,-0.6487785841223528
1016,2.324849570691117
1018,0.7091701747258704
