wave,flux
336,20.25950820955107
338,154.4348593661493
340,484.2486793046721
342,881.7279473449419
344,1331.1971949363449
346,1975.7912464166404
348,2820.388541823561
350,3681.505661502185
352,4560.501498861797
354,5585.141006809054
356,6813.863348934475
358,8422.084172853187
360,10769.26361189613
362,13741.474775078343
364,16761.60395669051
366,19822.711832385816
368,23249.47164699527
370,27048.227282926702
372,31165.11860680814
374,35683.1520833951
376,41619.39027798731
378,49919.19398411995
380,60781.73019791033
382,73319.127474032
384,90179.21302634086
386,117214.02170714126
388,161800.97030217154
390,230628.677112272
392,329892.774596494
394,449700.4716420521
396,571374.9054478093
398,673721.1462350223
400,761600.7527819739
402,846948.3363028445
404,939919.8899397992
406,1034808.1936145991
408,1122438.2470070112
410,1198142.9381037527
412,1264339.0119402737
414,1328199.9980868571
416,1397467.2338837718
418,1480705.3015483564
420,1587830.6417452467
422,1729326.8101979326
424,1914545.699264245
426,2144347.1810993482
428,2405376.6453643637
430,2666957.3029002897
432,2891299.668471812
434,3050890.6532287844
436,3142404.779637037
438,3188468.7709152363
440,3226585.974426262
442,3288289.8126041195
444,3394501.936354627
446,3552878.7268714244
448,3769695.5629911674
450,4053549.974551285
452,4401377.941961511
454,4783921.440203094
456,5167531.684010968
458,5508592.907809878
460,5759422.383633345
462,5918602.876031545
464,6005305.066647834
466,6037751.639272332
468,6041570.983103046
470,6041711.371479646
472,6041529.610753975
474,6041150.94623182
476,6041480.584817483
478,6041099.065034408
480,6041690.782247156
482,6041304.431450719
484,6041453.016263904
486,6041528.891243305
488,6041697.069692104
490,6041734.392909879
492,6041502.027788468
494,6041376.76129896
496,6041619.936926777
498,6041240.6427714145
500,6041599.022443961
502,6041368.270470227
504,6041518.884396133
506,6041065.752429458
508,6041195.966518588
510,6041363.845334591
512,6041702.065949261
514,6041390.627664175
516,6041241.697440625
518,6041392.142615195
520,6041108.270602825
522,6041661.153840985
524,6041548.332329251
526,6041478.374496645
528,6041279.060900742
530,6041522.406796573
532,6041139.559065805
534,6041446.121369708
536,6041558.226234266
538,6041660.465390603
540,6041676.8315188065
542,6041408.379938063
544,6041464.72457141
546,6041271.343213635
548,6041181.302989636
550,6041352.458646104
552,6041600.439900461
554,6041550.147087776
556,6041419.368629838
558,6041579.287881769
560,6041556.533203301
562,6041188.688516198
564,6041094.52198475
566,6041468.765831732
568,6040779.889954177
570,6041791.615025396
572,6041078.62844353
574,6041532.594717565
576,6041076.054351555
578,6041169.374925548
580,6041253.208777571
582,6041266.487193657
584,6041738.118376102
586,6040917.237836147
588,6040930.250418759
590,6041214.26106826
592,6041451.948691204
594,6041478.09741484
596,6041507.717462021
598,6041724.21924006
600,6041240.761540923
602,6041193.187158186
604,6041405.052345833
606,6041244.6011419725
608,6041069.46337888
610,6041418.2134468835
612,6041339.537605566
614,6041052.302478899
616,6041395.350902595
618,6041523.745134777
620,6041683.602116853
622,6041522.451363434
624,6040552.2601101445
626,6040264.7245085845
628,6041120.109661946
630,6042743.209650937
632,6044135.548624837
634,6042785.1327946745
636,6040724.192690298
638,6042029.444926146
640,6042078.9474293655
642,6040278.827001737
644,6039766.563843446
646,6041000.140445004
648,6042061.750813433
650,6040976.341533406
652,6039990.081508622
654,6040284.5835565645
656,6041106.863038614
658,6040815.462563431
660,6039848.245658896
662,6040988.092030918
664,6042684.744168085
666,6042874.916475954
668,6042796.860693146
670,6042813.319359828
672,6042293.266522331
674,6041516.191521784
676,6041231.681611195
678,6043012.914088447
680,6069449.423338941
682,6046275.467724005
684,6041467.950252812
686,6041441.442238389
688,6040955.489590067
690,6041315.858644002
692,6041350.307085525
694,6041850.281839019
696,6041497.367667658
698,6041199.302168395
700,6041453.646278644
702,6041828.693192871
704,6040860.427708771
706,6041675.622792104
708,6041571.681644926
710,6041346.454989626
712,6041546.234560798
714,6041858.824615336
716,6041142.5820534965
718,6041286.403162461
720,6041703.1207177285
722,6041807.585318082
724,6041329.8607438
726,6041296.890614847
728,6041527.288726995
730,6041723.792105585
732,6041192.330811199
734,6041150.1016538385
736,6041704.398114255
738,6041255.137810724
740,6041344.973276121
742,6041402.044472554
744,6041509.896928869
746,6041611.23472158
748,6041281.529689905
750,6041392.455248062
752,6040981.1977447625
754,6041295.389267499
756,6041239.4416478425
758,6041271.659960353
760,6041533.037164191
762,6033170.558480699
764,5997309.196911797
766,5919816.184365741
768,5789128.623488824
770,5591227.92157777
772,5331562.926099856
774,5030824.995786329
776,4699258.250554136
778,4346757.545140255
780,3987299.429810042
782,3631624.3336451664
784,3286378.269654552
786,2964560.482130975
788,2677357.907088312
790,2431812.978824052
792,2227005.630354121
794,2056991.6675400746
796,1912122.286436368
798,1783069.2196949078
800,1663500.214270693
802,1548744.6415391257
804,1440089.3704584274
806,1338355.7413583586
808,1246002.4351940232
810,1164641.9993123675
812,1094313.8934356393
814,1033315.1507154639
816,979276.3012057306
818,928884.3489745458
820,880151.1850921786
822,831067.2044299131
824,781134.7456778135
826,731197.4373941015
828,682133.9307999852
830,635157.065687494
832,590767.9318637582
834,549817.9262336656
836,511926.9827578021
838,476508.58827418834
840,442988.8091633684
842,410512.7161371145
844,378885.83903410326
846,347759.8550145639
848,317145.038704723
850,286997.5341464601
852,257814.11993689087
854,229635.74166079867
856,202883.51438950063
858,177548.2583061767
860,153963.78261275878
862,132580.8515415665
864,113288.53811543316
866,96239.40874515912
868,81413.00428997858
870,68826.20859127876
872,58133.754868965356
874,49160.33286656182
876,41666.7751322839
878,35497.06635140222
880,30295.018445045593
882,25695.68578759554
884,21591.37521759164
886,17852.922836174053
888,14389.809163301048
890,11160.697668091325
892,8122.388938503005
894,5540.658797514908
896,3560.8201047046186
898,2067.8082667675035
900,1036.1379326991748
902,389.7262820249188
904,91.05201843704549
906,33.85408597934234
908,10.175341117526877
910,0.4798427012002451
912,-3.482973111878331
914,2.393407046365594
916,-5.54246237681494
918,-0.29287613119402345
920,-2.3379566926154904
922,4.289920058427215
924,0.9442159283387628
926,-2.7336637591896857
928,1.0006701908683229
930,-1.3057717257606596
932,1.5404292547943992
934,4.001179039549514
936,-1.414773894536123
938,3.248233771030033
940,0.4896997775772239
942,3.269850699677664
944,0.8757233738836303
946,1.835094323646329
948,-1.5911823412967454
950,0.22756291881490442
952,1.4645588048001232
954,3.043621082643513
956,0.027056986644400358
958,-0.10659459427895207
960,-0.7023202398106899
962,-2.0064684457895754
964,-3.0020412361544704
966,-2.2327748367148637
968,-2.2451702637504916
970,3.087313082970052
972,-1.474238603491238
974,-1.3750943045639343
976,0.09099228775895851
978,-4.359327552662422
980,0.17173412192045567
982,0.5883557203648353
984,-0.6237451035931326
986,0.24693956783995888
988,-1.1733774690472267
990,1.089032408027303
992,0.5823660453244227
994,0.22070109661222787
996,-2.4283186811864717
998,-1.410528741235163
1000,-1.602076920989911
1002,-0.0723170684905614
1004,-2.2803875418149437
1006,-0.15982876153475076
1008,-1.1915084778267833
1010,-1.9937058314243845
1012,1.598653035792643
1014,-0.6487785841223528
1016,2.324849570691117
1018,0.7091701747258704
