wave,flux
336,193.9801232640688
338,243.62723345184827
340,303.1078617705217
342,371.78329245011975
344,438.44594896788817
346,515.7456143396035
348,601.9739055696456
350,698.5153313083262
352,820.2647546260354
354,1043.213367388689
356,1516.9668749645216
358,2443.9063100409858
360,3917.1971330153488
362,5737.407018160622
364,7535.257275212546
366,9293.076558942912
368,11337.887241652985
370,13632.881386102592
372,15340.200141988431
374,15642.625362902605
376,14742.37650807872
378,13909.966935562643
380,14549.320342821204
382,17148.201768191197
384,21002.63989986822
386,24610.36360111665
388,26754.463450477157
390,27457.475350162473
392,27855.15404665382
394,28865.17218562615
396,30257.798003668027
398,31122.488970402563
400,31234.425643147773
402,31300.99869494937
404,32207.58591726721
406,34058.265240684435
408,36102.957076748986
410,37464.92337413768
412,38039.83196769409
414,50004.07576448349
416,77753.63133073405
418,122388.76514387276
420,177482.3330248926
422,228824.99139666857
424,277043.04289867723
426,322563.4075920289
428,365145.54956508806
430,403962.2330709872
432,437068.95928963204
434,462531.4695832631
436,483915.3198697379
438,502506.31185161613
440,519789.0915193296
442,537855.2972791306
444,558256.0161106717
446,581832.3963920545
448,608474.7042559471
450,638842.7638485754
452,674982.0233258946
454,719370.8899346367
456,772304.6287050602
458,829481.5898828666
460,883250.6157627662
462,925445.1686446193
464,950358.8279597985
466,957850.9301666018
468,953316.0532138016
470,944367.8436911074
472,938587.6287205336
474,941936.5891562075
476,959261.396255248
478,993807.141965692
480,1047938.8827917393
482,1122115.6918462731
484,1217413.1026409164
486,1335743.7435694505
488,1479911.581918491
490,1652579.9957463746
492,1854919.3793212525
494,2082441.1089195379
496,2325470.567912281
498,2567220.210039778
500,2787492.4996313713
502,2970614.337605643
504,3109846.1822757404
506,3212700.878198069
508,3297889.1235046624
510,3394562.688357184
512,3536699.1706808433
514,3737370.5459796083
516,3998708.448726893
518,4310895.453526972
520,4654155.53831063
522,5000631.130153648
524,5314171.320475883
526,5566936.58613441
528,5759284.649623061
530,5894826.212835129
532,5980042.664235769
534,6024870.384988026
536,6040537.855346942
538,6041345.127396768
540,6041294.913956162
542,6040978.040368698
544,6041442.09192831
546,6041627.792003226
548,6041368.8547383845
550,6041604.382488151
552,6041286.917181321
554,6040688.783166883
556,6041454.421928966
558,6041376.085167715
560,6041245.1617942415
562,6041257.203692758
564,6041354.935239035
566,6041996.370251818
568,6041603.340968304
570,6041373.3038717965
572,6041143.562128932
574,6041560.4525839705
576,6041568.015583269
578,6041553.129477495
580,6041621.348870029
582,6041419.465973047
584,6041300.184703673
586,6041483.076419933
588,6041421.061961372
590,6041526.59868995
592,6041446.373403435
594,6041194.8376360675
596,6041091.98197307
598,6041148.218131914
600,6041354.69511193
602,6041702.561912458
604,6042182.967532837
606,6042787.060972398
608,6043505.991230479
610,6044330.907306419
612,6045252.95819955
614,6046263.2929092115
616,6047353.06043474
618,6048513.409775468
620,6049735.489930734
622,6051010.449899876
624,6052329.438682228
626,6053683.605277127
628,6055064.098683908
630,6056462.067901908
632,6057868.661930466
634,6059275.029768916
636,6060672.320416594
638,6062051.682872835
640,6063404.266136977
642,6064721.219208356
644,6065993.69108631
646,6067212.830770171
648,6068369.787259281
650,6069455.709552971
652,6070461.74665058
654,6071379.047551444
656,6072198.761254897
658,6072912.036760279
660,6073510.023066924
662,6073983.869174168
664,6074324.724081351
666,6074523.736787803
668,6074572.056292865
670,6074460.831595872
672,6074181.211696159
674,6073724.345593063
676,6073081.382285922
678,6072243.470774069
680,6071201.760056844
682,6069947.399133581
684,6068471.537003617
686,6066765.322666286
688,6064819.905120927
690,6062626.433366877
692,6060176.056403469
694,6057459.923230042
696,6054469.18284593
698,6051194.984250471
700,6047628.476443002
702,6043760.808422856
704,6037213.3140112795
706,5951723.465335754
708,5677966.052092904
710,5162968.661841192
712,4405307.474049447
714,3548944.4344233605
716,2846009.7540848786
718,2453661.4333682046
720,2419220.3422449147
722,2676694.0889729783
724,3048913.6254117647
726,3389248.709982756
728,3618144.8515051617
730,3722137.702312947
732,3724791.788435692
734,3658404.4125140877
736,3547834.2454693303
738,3411675.500376602
740,3281266.425205566
742,3220614.031094965
744,3316280.339533644
746,3595735.003019999
748,4047483.8014821163
750,4612418.638226807
752,5161899.294229332
754,5580346.684506076
756,5857472.684458509
758,5999635.480765513
760,6040396.669877499
762,6041323.906649766
764,6041288.445309765
766,6041451.089874661
768,6041587.580499393
770,6041268.369628185
772,6041458.212543554
774,6041377.531029057
776,6041771.95956914
778,6041341.789343996
780,6041235.569972832
782,6041187.349605781
784,6041689.922716313
786,6041526.493043188
788,6041161.279845747
790,6041264.655395237
792,6041394.191541192
794,6041346.483226518
796,6041563.467301391
798,6041393.992767638
800,6041013.848625732
802,6041242.71017467
804,6041633.697830491
806,6041474.851867494
808,6041340.206483702
810,6040476.896812299
812,6030501.471913005
814,6010709.327717278
816,5987113.258550818
818,5965160.873649464
820,5941485.304477537
822,5927125.592603402
824,5933677.723957823
826,5954920.18707
828,5976746.520973438
830,5999050.133835595
832,6021168.56550896
834,6036487.02449733
836,6041779.136217378
838,6041158.936430674
840,6041451.2533222
842,6041120.3227281
844,6041544.202064093
846,6041314.459414491
848,6041515.74623968
850,6041214.988796121
852,6041375.199370071
854,6041300.454584308
856,6041272.207297666
858,6041478.228599308
860,6041336.6226767
862,6041496.336655661
864,6041342.507455706
866,6041349.310111891
868,6041224.591401995
870,6041703.066376171
872,6041125.557385189
874,6041533.641872476
876,6041379.613836721
878,6041076.450878949
880,6041717.021392829
882,6041175.435711568
884,6041462.522676468
886,6041438.248078431
888,6041078.8591638245
890,6041345.767291883
892,6041448.674007037
894,6041456.225925874
896,6041311.731219381
898,6041663.663880635
900,6041478.51256387
902,6041398.694606588
904,6041325.065686952
906,6041263.687185237
908,6041038.942341128
910,6041264.691251243
912,6041009.391292178
914,6041740.308603801
916,6041490.393460887
918,6041154.245836258
920,6041231.965370912
922,6041162.662288789
924,6041532.939179378
926,6041509.963560465
928,6041375.349341608
930,6041784.108832992
932,6041477.139523257
934,6041746.767053641
936,6041442.910545951
938,6041427.660100521
940,6041436.737883927
942,6041299.916195709
944,6041672.938163029
946,6041972.737847948
948,6040997.4976437865
950,6041527.172483896
952,6041360.037925265
954,6041204.110806951
956,6041323.610330461
958,6041410.761771096
960,6041213.829537946
962,6041098.631738511
964,6041349.653596208
966,6041047.612606475
968,6042010.401726091
970,6041055.470805336
972,6041664.452700466
974,6041102.703915492
976,6041583.618326493
978,6041597.810315059
980,6042227.292573821
982,6042681.469365726
984,6040917.766485885
986,6040888.242716824
988,6040755.737442582
990,6041424.138361211
992,6041273.104059525
994,6041908.471368191
996,6033311.589377661
998,6001775.252673258
