wave,flux
336,1252351.4895764831
338,2781870.293505471
340,3472247.5985147916
342,3831847.0732114837
344,4241703.076371131
346,4710092.5580490185
348,5238793.446643451
350,5720711.007097876
352,5981010.158440626
354,6040702.988369687
356,6041442.357669142
358,6041703.027078968
360,6041227.437075379
362,6041807.949225665
364,6041360.581553096
366,6041425.322485908
368,6041366.62748076
370,6041195.673224311
372,6041577.628234744
374,6041791.659697853
376,6042150.458998255
378,6041393.366176885
380,6041301.317853146
382,6041543.405706099
384,6041066.042216758
386,6041658.355488219
388,6041832.04848992
390,6041360.361874501
392,6041723.0217186175
394,6042039.442730866
396,6041633.507922686
398,6040970.380269692
400,6041605.552716248
402,6040831.618316814
404,6041566.328917578
406,6041634.786466305
408,6041326.086670721
410,6041640.001509094
412,6041486.456393131
414,6041484.4975572955
416,6041285.962895025
418,6041391.233648433
420,6040186.583951905
422,5991122.733288099
424,5818673.111230013
426,5486955.386253798
428,5006155.746869217
430,4507165.595674331
432,4120925.1150513683
434,3915114.104710317
436,3913189.195294045
438,4079224.9535154854
440,4372288.265641843
442,4745182.18579567
444,5136269.919719491
446,5469609.035835768
448,5677798.527195762
450,5737564.564203771
452,5663914.666211047
454,5500690.950055966
456,5297174.969676653
458,5090689.407059516
460,4897672.557202075
462,4723797.389898274
464,4567243.693870957
466,4423203.28628294
468,4291151.560259348
470,4172036.6940306225
472,4069789.4936604705
474,3988211.6889717216
476,3933958.7508476265
478,3912327.1920709917
480,3928012.435894031
482,3986260.4131075204
484,4089257.441249716
486,4236412.196624681
488,4419893.771338876
490,4625892.293413426
492,4834556.195048051
494,5017222.626611037
496,5146373.753529046
498,5144558.722343448
500,4996438.350565568
502,4702505.33611239
504,4272945.318007887
506,3732059.553774544
508,3103889.1793574174
510,2510234.397300801
512,1991039.6014939796
514,1560177.0160918902
516,1223853.1317796074
518,982352.7448070813
520,830370.1723703286
522,747614.2922036987
524,683141.1708792497
526,633707.829367762
528,592464.0750676728
530,555852.8674229895
532,523029.9502124275
534,493195.0222179254
536,467079.03770539595
538,445257.31058652274
540,427975.54169495526
542,415138.01318192645
544,406299.5528982625
546,401021.8096772637
548,398553.8778067647
550,398378.386865531
552,400392.854489163
554,404683.6155766375
556,411489.4548320477
558,421070.45279771223
560,433639.1141696408
562,449182.31363082613
564,467487.0687597624
566,487901.25536993897
568,509567.0444175482
570,531376.1432351023
572,552566.6564117675
574,572084.7282549137
576,589257.3885129294
578,603975.5124569057
580,616168.7501745844
582,626305.5826208546
584,635087.5484595238
586,643100.3175475763
588,651705.0160072253
590,661746.1922618194
592,673932.3976947665
594,689193.6882711723
596,708323.005686835
598,731768.471742774
600,760098.0809479818
602,794351.2842744382
604,835329.6885443899
606,884413.0702344372
608,943521.8788000562
610,1013896.5306873438
612,1098438.0345730472
614,1199897.404056099
616,1320535.6886033537
618,1463073.8471437546
620,1629958.5485449058
622,1822565.7434863434
624,2041281.6543170342
626,2285850.1383215366
628,2552970.5009356267
630,2837830.7606733665
632,3135489.4805300324
634,3440770.6309609534
636,3747728.7744654245
638,4050028.7305189217
640,4342282.590822618
642,4619270.470701764
644,4875360.177393476
646,5103870.940248126
648,5299019.656254726
650,5456595.813200082
652,5574807.294384143
654,5654139.172933436
656,5695937.663431524
658,5698371.4894389035
660,5661107.704781657
662,5586626.363310333
664,5475941.624176822
666,5329796.825902186
668,5150030.164854076
670,4939366.680461286
672,4701811.786804327
674,4444856.950621991
676,4175378.180210807
678,3896549.6169631598
680,3612388.1725888494
682,3328018.2274384983
684,3047644.106312531
686,2775089.807506968
688,2514328.337399913
690,2268678.1187907653
692,2040292.54304829
694,1831155.2210938265
696,1643103.8997878223
698,1477064.5004262528
700,1333181.856827426
702,1210108.4614008842
704,1105949.3764107276
706,1018761.2134621702
708,946463.7144512828
710,886651.7085389213
712,837448.6941519409
714,798122.6831130229
716,766976.566038813
718,740539.2554689333
720,716887.5142816043
722,696546.1649527322
724,678635.1686086254
726,660127.2999268658
728,639917.408397762
730,619771.3376320858
732,600268.1004206424
734,579870.6312041022
736,557681.24461499
738,534256.1389453958
740,510040.86132762866
742,484889.3776110822
744,458824.3869898297
746,432661.67687232816
748,407202.7245219138
750,382413.15408121014
752,358060.0967604053
754,334387.6362403122
756,311864.17553336854
758,290686.05008094775
760,270813.53286950715
762,252281.91611330412
764,235259.57748338033
766,219857.80704249413
768,205952.79265404717
770,193384.06603290586
772,182104.50547894512
774,172121.17493064926
776,163335.67521969738
778,155521.19561437747
780,148489.33773270436
782,142204.53463890913
784,136655.12395608373
786,131739.77150244583
788,127299.43024496968
790,123202.82902016233
792,119376.86330531168
794,115754.24080617721
796,112257.77954417276
798,108805.97461050576
800,105369.85790371175
802,102017.92870927742
804,98816.76132232047
806,95715.96345377679
808,92601.38546439014
810,89402.1199887321
812,86159.12365843634
814,82929.37461702431
816,79740.19380050746
818,76592.14805453616
820,73489.10977046115
822,70458.93696910076
824,67537.80481628494
826,64747.9597615161
828,62080.1511080711
830,59521.06741818463
832,57064.654766817664
834,54712.846102876974
836,52468.16593884011
838,50335.0789039183
840,48319.2254910656
842,46426.16547318186
844,44660.89046002101
846,43028.18615538488
848,41527.63676241809
850,40139.01344570855
852,38837.381377541
854,37608.02279899167
856,36465.35385746471
858,35428.912019999436
860,34505.61574929665
862,33671.49183984081
864,32897.96493310528
866,32167.815570690917
868,31491.05574242694
870,30881.680861748442
872,30345.437117249487
874,29865.925386600822
876,29423.06949240216
878,29002.910791159222
880,28612.70567628606
882,28264.306308529456
884,27966.704804660647
886,27713.962999555915
888,27495.28673097294
890,27300.5291339126
892,27125.682888081978
894,26970.119008816622
896,26833.272895495105
898,26715.29052987793
900,26617.049612667022
902,26539.4511230816
904,26481.216648953603
906,26436.201045166832
908,26397.60001076876
910,26359.592913759254
912,26322.42651793184
914,26288.658744327044
916,26260.72719709684
918,26237.584282181902
920,26214.31784652185
922,26185.814758953795
924,26148.16751366447
926,26102.18019899015
928,26049.807709748817
930,25992.9136512734
932,25931.242761309324
934,25862.410182842996
936,25783.93762392432
938,25693.531286636106
940,25589.808290522247
942,25471.66639695586
944,25338.027700438197
946,25189.657038278896
948,25030.423855554247
950,24864.49595681133
952,24695.707052331818
954,24523.1475725747
956,24342.38310279845
958,24148.89557426147
960,23939.03683213389
962,23714.447495119846
964,23478.75593690545
966,23235.594036207654
968,22987.82487911008
970,22735.63594168119
972,22478.632999017587
974,22216.422118088707
976,21948.710188099594
978,21675.45209122232
980,21396.640153938282
982,21112.27113908321
984,20823.104148538885
986,20531.519026044116
988,20240.103006974547
990,19951.437899385008
992,19666.959406125254
994,19385.54831788207
996,19105.740069672553
998,18826.070976582618
