wave,flux
336,166279.41864566357
338,228919.9371017423
340,336786.5521854613
342,508474.6823622632
344,759423.7092942322
346,1093266.29354143
348,1485189.189337141
350,1894452.1749694496
352,2279656.5906255827
354,2603855.652147747
356,2855190.778729867
358,3046837.5222743778
360,3191786.82239886
362,3298432.347391731
364,3429779.5891674925
366,3755045.6654464193
368,4421055.040956392
370,5233041.975380382
372,5805014.8036433635
374,6017726.084398692
376,6041602.159866293
378,6042142.38572634
380,6041171.697550433
382,6041580.219640411
384,6041749.734276408
386,6041457.604546469
388,6041858.545376155
390,6041079.684391575
392,6041409.795281958
394,6041208.163072725
396,6041528.82432703
398,6041079.125047996
400,6041663.700113958
402,6041859.595233071
404,6041061.988211136
406,6041538.55657893
408,6041287.827080825
410,6041788.671871721
412,6041609.054697979
414,6041394.420806966
416,6041384.047001311
418,6040915.368189017
420,6041268.744113479
422,6041404.201978581
424,6041783.094486124
426,6041716.937634639
428,6041216.283538457
430,6041563.389486557
432,6041450.598970713
434,6042007.622844271
436,6041045.636298818
438,6041414.690612407
440,6040831.678153867
442,6041439.447938314
444,6041067.312136061
446,6041416.8193173865
448,6041362.082180383
450,6041489.060574035
452,6041317.7172738
454,6041017.14879259
456,6041329.457610395
458,6041475.106161879
460,6041332.825014797
462,6041368.943718057
464,6041287.192856407
466,6041572.191806964
468,6041188.750026617
470,6041466.861413639
472,6041201.413365663
474,6041581.090581007
476,6041452.224784632
478,6041125.1227463465
480,6041597.813790142
482,6041214.748650924
484,6041393.302266678
486,6041895.073587719
488,6041325.230556027
490,6041466.25920492
492,6041155.216702283
494,6041098.947595046
496,6041692.1603755355
498,6041245.399895997
500,6041633.677273495
502,6041619.29453684
504,6041307.151583439
506,6041288.407371345
508,6041381.399915838
510,6041377.854912168
512,6041158.649846832
514,6041146.9748980785
516,6041360.751853648
518,6041293.409795132
520,6041544.192021051
522,6041378.49610597
524,6041432.101601863
526,6041458.083193427
528,6041149.473936138
530,6041525.337844493
532,6040958.466531205
534,6041532.596256979
536,6040968.938511947
538,6041495.435462391
540,6041377.8085126905
542,6041408.825461228
544,6041555.076260426
546,6041160.414676222
548,6041206.312101199
550,6041749.0327250445
552,6041323.537990849
554,6040930.263012853
556,6041219.204486741
558,6041233.811630966
560,6041286.29930274
562,6041353.963536649
564,6041352.654945432
566,6041421.20543202
568,6041324.251424178
570,6041255.888071897
572,6041732.7105623195
574,6041526.36198607
576,6041594.84452291
578,6041257.153293457
580,6041400.710172119
582,6041739.909554492
584,6041298.252123125
586,6041495.391651784
588,6041810.721830921
590,6041453.665152861
592,6041161.774532899
594,6041585.466212262
596,6041917.379268857
598,6041406.8926760405
600,6041480.018122065
602,6041639.39300234
604,6041534.505044015
606,6041566.331356556
608,6041829.609457471
610,6041258.462726449
612,6041142.521140063
614,6041636.525791494
616,6041738.342889145
618,6041730.694917942
620,6041124.195490813
622,6041022.619029853
624,6042333.198699659
626,6041720.198899214
628,6041071.415873878
630,6041947.90906634
632,6042123.817885653
634,6042590.791744377
636,6042959.473442712
638,6041908.284699066
640,6042361.192160914
642,6042768.7387068
644,6040349.490048442
646,6040469.371967521
648,6042072.386120431
650,6040849.247614504
652,6041030.0785351675
654,6042856.806075121
656,6042629.271023524
658,6041622.439149805
660,6041602.174319374
662,6042901.72236492
664,6043578.7362763565
666,6042177.491144465
668,6040502.154093862
670,6039568.600234615
672,6039306.394531076
674,6039609.10278281
676,6040370.290789381
678,6041483.524350347
680,6042842.369265274
682,6044340.391333721
684,6045871.15635525
686,6047328.230129425
688,6048605.178455806
690,6049595.567133954
692,6050192.961963434
694,6050290.928743804
696,6049783.03327463
698,6048562.841355471
700,6046523.918785891
702,6043559.831365448
704,6037217.380966132
706,5951723.864387041
708,5677966.089484185
710,5162968.66515145
712,4405307.474321916
714,3548944.4344435497
716,2846009.754086117
718,2453661.433368248
720,2419220.342244911
722,2676694.088972977
724,3048913.6254117647
726,3389248.709982756
728,3618144.8515051617
730,3722137.702312947
732,3724791.788435692
734,3658404.4125140877
736,3547834.2454693303
738,3411675.500376602
740,3281266.425205566
742,3220614.031094965
744,3316280.339533644
746,3595735.003019999
748,4047483.8014821163
750,4612418.638226807
752,5161899.294229332
754,5580346.684506076
756,5857472.684458509
758,5999635.480765513
760,6040396.669877499
762,6041323.906649766
764,6041288.445309765
766,6041451.089874661
768,6041587.580499393
770,6041268.369628185
772,6041458.212543554
774,6041377.531029057
776,6041771.95956914
778,6041341.789343996
780,6041235.569972832
782,6041187.349605781
784,6041689.922716313
786,6041526.493043188
788,6041161.279845747
790,6041264.655395237
792,6041394.191541192
794,6041346.483226518
796,6041563.467301391
798,6041393.992767638
800,6041013.848625732
802,6041242.71017467
804,6041633.697830491
806,6041474.851867494
808,6041340.206483702
810,6040476.896812299
812,6030501.471913005
814,6010709.327717278
816,5987113.258550818
818,5965160.873649464
820,5941485.304477537
822,5927125.592603402
824,5933677.723957823
826,5954920.18707
828,5976746.520973438
830,5999050.133835595
832,6021168.56550896
834,6036487.02449733
836,6041779.136217378
838,6041158.936430674
840,6041451.2533222
842,6041120.3227281
844,6041544.202064093
846,6041314.459414491
848,6041515.74623968
850,6041214.988796121
852,6041375.199370071
854,6041300.454584308
856,6041272.207297666
858,6041478.228599308
860,6041336.6226767
862,6041496.336655661
864,6041342.507455706
866,6041349.310111891
868,6041224.591401995
870,6041703.066376171
872,6041125.557385189
874,6041533.641872476
876,6041379.613836721
878,6041076.450878949
880,6041717.021392829
882,6041175.435711568
884,6041462.522676468
886,6041438.248078431
888,6041078.8591638245
890,6041345.767291883
892,6041448.674007037
894,6041456.225925874
896,6041311.731219381
898,6041663.663880635
900,6041478.51256387
902,6041398.694606588
904,6041325.065686952
906,6041263.687185237
908,6041038.942341128
910,6041264.691251243
912,6041009.391292178
914,6041740.308603801
916,6041490.393460887
918,6041154.245836258
920,6041231.965370912
922,6041162.662288789
924,6041532.939179378
926,6041509.963560465
928,6041375.349341608
930,6041784.108832992
932,6041477.139523257
934,6041746.767053641
936,6041442.910545951
938,6041427.660100521
940,6041436.737883927
942,6041299.916195709
944,6041672.938163029
946,6041972.737847948
948,6040997.4976437865
950,6041527.172483896
952,6041360.037925265
954,6041204.110806951
956,6041323.610330461
958,6041410.761771096
960,6041213.829537946
962,6041098.631738511
964,6041349.653596208
966,6041047.612606475
968,6042010.401726091
970,6041055.470805336
972,6041664.452700466
974,6041102.703915492
976,6041583.618326493
978,6041597.810315059
980,6042227.292573821
982,6042681.469365726
984,6040917.766485885
986,6040888.242716824
988,6040755.737442582
990,6041424.138361211
992,6041273.104059525
994,6041908.471368191
996,6033311.589377661
998,6001775.252673258
