wave,flux
336,39602.79550936699
338,54805.623888287984
340,81291.51633037228
342,122199.79925792904
344,180292.55752252263
346,258940.58974427602
348,355646.3435598987
350,466470.345090614
352,594845.001263769
354,741456.8507683736
356,881264.5356103721
358,972825.6126216472
360,996153.6604296945
362,963788.10294351
364,900605.035841072
366,835882.4523481395
368,800300.0547468567
370,809310.2097046083
372,849676.5646251533
374,895508.2170939303
376,942718.4836753499
378,1030225.6798420902
380,1218023.3676714147
382,1531813.1318916716
384,1921056.3711440621
386,2279010.706571806
388,2532501.2273739604
390,2710012.1056287065
392,2908930.6654565097
394,3165311.554309386
396,3387472.271851319
398,3447736.5675369566
400,3333530.2935874844
402,3170690.0508556105
404,3102659.514451199
406,3174653.401700358
408,3313955.36702626
410,3418032.3360295803
412,3428252.2461441695
414,3355479.839425536
416,3256967.3833044176
418,3197836.0084150257
420,3235662.247480449
422,3426431.4818099407
424,3809477.422921354
426,4342944.402364532
428,4932871.03660298
430,5451304.9328996185
432,5793793.646173744
434,5973307.474686001
436,6006390.908124034
438,5920515.251687395
440,5756423.788280423
442,5518453.083361538
444,5260650.94452989
446,5065136.534537476
448,4987732.131176815
450,5045970.102406639
452,5219655.764432353
454,5450753.787592963
456,5677396.6612999085
458,5850203.3557454
460,5961712.0813794555
462,6020509.225755233
464,6040014.211579073
466,6041356.088271198
468,6041407.911047589
470,6041358.62954426
472,6041117.164565929
474,6041520.270557206
476,6040984.038219355
478,6041621.837193556
480,6041236.027426823
482,6041504.662555662
484,6041201.8447937295
486,6041555.981986317
488,6041616.481927819
490,6041450.586619122
492,6041362.066751958
494,6041539.646204173
496,6041853.053850513
498,6041560.632930462
500,6041485.475960932
502,6041264.683598099
504,6041694.974016525
506,6041547.652965503
508,6041740.896902712
510,6041636.35970176
512,6041247.069972177
514,6041464.664823587
516,6041323.936864472
518,6041727.154204423
520,6041246.209720837
522,6041562.147849249
524,6041402.609705654
526,6041524.277961489
528,6041928.806429609
530,6040862.722617725
532,6041678.82215299
534,6041261.765786361
536,6041696.056030813
538,6041623.778871001
540,6041086.914410514
542,6041292.867413402
544,6040835.070408541
546,6041408.017498406
548,6041772.901360831
550,6041386.09341462
552,6041061.920327888
554,6041362.220879727
556,6041358.248052316
558,6041032.0480828285
560,6041256.575115929
562,6041594.955855039
564,6041199.562265434
566,6041494.43259974
568,6041474.822036619
570,6041517.861011039
572,6041702.823431209
574,6041329.258285889
576,6041244.24101385
578,6041565.63314286
580,6041636.641946891
582,6041213.411412324
584,6041188.852731363
586,6041788.65136696
588,6041075.6303943135
590,6041195.66974173
592,6041708.969649536
594,6041682.37746159
596,6041440.167531456
598,6041377.056688597
600,6040967.262633908
602,6041123.022322807
604,6041349.680141827
606,6041410.093392432
608,6041872.7905829325
610,6041685.43891994
612,6041561.834619555
614,6041548.699825328
616,6041022.136010294
618,6040691.032857019
620,6041664.952976357
622,6042631.017863002
624,6041594.601757361
626,6040466.570559071
628,6040029.888917311
630,6040423.868309257
632,6041672.480955683
634,6041976.358152165
636,6040987.1880747555
638,6040114.093033367
640,6040183.360356302
642,6040731.756835703
644,6040806.459152548
646,6040667.15588926
648,6040828.679574534
650,6041567.713233086
652,6042320.071960195
654,6042043.740875836
656,6040196.989834078
658,6039475.27628431
660,6040921.053745443
662,6042415.410020225
664,6042258.183817037
666,6040628.08530994
668,6041046.367560552
670,6041580.495727129
672,6036070.350507275
674,6023315.8872919455
676,6002312.105015208
678,5969015.260415042
680,5923245.133413649
682,5868338.265120203
684,5804119.031598952
686,5729310.576015257
688,5644354.862361105
690,5549811.726669284
692,5445814.947990121
694,5331991.030157219
696,5207909.309916034
698,5077055.962155286
700,4944870.470383731
702,4814974.1926188655
704,4689903.9784626365
706,4570623.119794459
708,4457652.043639619
710,4351306.383047825
712,4250825.28908142
714,4153380.5905526048
716,4056989.134804387
718,3961446.7234113724
720,3866130.3952303706
722,3769606.187817676
724,3671955.63361161
726,3575332.396033548
728,3477641.777202541
730,3370826.6461113393
732,3255904.312191157
734,3148344.3824187396
736,3064823.4587594867
738,3022018.1431787983
740,3036605.037642073
742,3125260.744114711
744,3304661.8645621114
746,3595720.9645519317
748,4047536.9569955794
750,4612425.265793516
752,5161899.5133767305
754,5580346.6246466
756,5857472.675179845
758,5999635.480453625
760,6040396.669972673
762,6041323.906663091
764,6041288.445309831
766,6041451.08987447
768,6041587.580499376
770,6041268.369628187
772,6041458.212543555
774,6041377.531029057
776,6041771.95956914
778,6041341.789343996
780,6041235.569972832
782,6041187.349605781
784,6041689.922716313
786,6041526.493043188
788,6041161.279845747
790,6041264.655395237
792,6041394.191541192
794,6041346.483226518
796,6041563.467301391
798,6041393.992767638
800,6041013.848625732
802,6041242.71017467
804,6041633.697830491
806,6041474.851867494
808,6041340.206483702
810,6040476.896812299
812,6030501.471913005
814,6010709.327717278
816,5987113.258550818
818,5965160.873649464
820,5941485.304477537
822,5927125.592603402
824,5933677.723957823
826,5954920.18707
828,5976746.520973438
830,5999050.133835595
832,6021168.56550896
834,6036487.02449733
836,6041779.136217378
838,6041158.936430674
840,6041451.2533222
842,6041120.3227281
844,6041544.202064093
846,6041314.459414491
848,6041515.74623968
850,6041214.988796121
852,6041375.199370071
854,6041300.454584308
856,6041272.207297666
858,6041478.228599308
860,6041336.6226767
862,6041496.336655661
864,6041342.507455706
866,6041349.310111891
868,6041224.591401995
870,6041703.066376171
872,6041125.557385189
874,6041533.641872476
876,6041379.613836721
878,6041076.450878949
880,6041717.021392829
882,6041175.435711568
884,6041462.522676468
886,6041438.248078431
888,6041078.8591638245
890,6041345.767291883
892,6041448.674007037
894,6041456.225925874
896,6041311.731219381
898,6041663.663880635
900,6041478.51256387
902,6041398.694606588
904,6041325.065686952
906,6041263.687185237
908,6041038.942341128
910,6041264.691251243
912,6041009.391292178
914,6041740.308603801
916,6041490.393460887
918,6041154.245836258
920,6041231.965370912
922,6041162.662288789
924,6041532.939179378
926,6041509.963560465
928,6041375.349341608
930,6041784.108832992
932,6041477.139523257
934,6041746.767053641
936,6041442.910545951
938,6041427.660100521
940,6041436.737883927
942,6041299.916195709
944,6041672.938163029
946,6041972.737847948
948,6040997.4976437865
950,6041527.172483896
952,6041360.037925265
954,6041204.110806951
956,6041323.610330461
958,6041410.761771096
960,6041213.829537946
962,6041098.631738511
964,6041349.653596208
966,6041047.612606475
968,6042010.401726091
970,6041055.470805336
972,6041664.452700466
974,6041102.703915492
976,6041583.618326493
978,6041597.810315059
980,6042227.292573821
982,6042681.469365726
984,6040917.766485885
986,6040888.242716824
988,6040755.737442582
990,6041424.138361211
992,6041273.104059525
994,6041908.471368191
996,6033311.589377661
998,6001775.252673258
