wave,flux
336,610151.9380159454
338,686025.8663595036
340,774181.1689746828
342,868837.9902160971
344,965502.784307144
346,1118715.1918374111
348,1395837.7792449782
350,1751249.2624788461
352,2086007.5951964585
354,2357980.8172014873
356,2554191.195629597
358,2705270.994294267
360,2959340.487219431
362,3516751.780636435
364,4427476.533832109
366,5359222.649989102
368,5890615.01850462
370,6037023.409542742
372,6041148.677633707
374,6041409.286555835
376,6041464.896523584
378,6041802.464862537
380,6042010.678489222
382,6041528.462947382
384,6041341.662897657
386,6041232.257173443
388,6041158.587730706
390,6041630.485627157
392,6041554.21280048
394,6041254.96084512
396,6040979.927842778
398,6041161.048666277
400,6041309.374075245
402,6041762.114867483
404,6041399.637008734
406,6040949.364333688
408,6041617.621739288
410,6041456.392860727
412,6041142.435164414
414,6041325.555155052
416,6042152.901663758
418,6041567.3595167715
420,6041418.638153155
422,6041173.289408084
424,6041659.207458184
426,6041033.096993703
428,6041543.701397628
430,6041110.500145043
432,6041195.084619191
434,6041273.713201447
436,6041925.203701764
438,6041253.885144265
440,6041234.848933638
442,6041944.362894946
444,6041367.059086882
446,6041798.046771079
448,6041414.840765014
450,6041017.94582598
452,6041999.646899701
454,6041115.322044532
456,6041506.534792355
458,6041456.108749523
460,6041048.175562379
462,6041435.741618423
464,6041372.70510962
466,6041119.832896859
468,6041308.750478549
470,6041878.248153075
472,6041207.005650163
474,6041600.049978776
476,6041187.382659341
478,6041281.411957657
480,6041443.041861665
482,6041252.194203425
484,6041485.71469176
486,6041416.891170603
488,6041361.380558404
490,6041322.02603156
492,6041106.240011525
494,6041730.390663875
496,6041151.660105724
498,6041768.357288566
500,6041353.729855708
502,6041263.538406607
504,6041424.454453386
506,6041376.807432825
508,6041283.4518089155
510,6041217.613146981
512,6041265.707246456
514,6041442.329035871
516,6041360.408235948
518,6041510.232129543
520,6041297.37401848
522,6041434.967597921
524,6040909.566949901
526,6041405.047444083
528,6041424.228689335
530,6041302.069310084
532,6041374.698259484
534,6041801.838550836
536,6041536.950749897
538,6041536.073413083
540,6041097.559420555
542,6041195.072287515
544,6041692.541213153
546,6041614.482383023
548,6041435.365992951
550,6041146.971880854
552,6041299.677766032
554,6041354.392628273
556,6040911.878265496
558,6041313.2207978
560,6041547.095923834
562,6041242.796412447
564,6041473.354872699
566,6041248.826526092
568,6041591.441655626
570,6040972.123495307
572,6041339.998458628
574,6041610.62406433
576,6041390.32075386
578,6040890.90883905
580,6041578.016707755
582,6042170.046775582
584,6041426.312575613
586,6041483.068182153
588,6041577.879818835
590,6042089.290555522
592,6041664.0750619
594,6041436.228423443
596,6041862.38914787
598,6041341.968056053
600,6041340.928016234
602,6041503.87230604
604,6041489.546173742
606,6041366.182172027
608,6041265.293951895
610,6041323.319760229
612,6041032.557417566
614,6040838.747492418
616,6041173.680759032
618,6040841.460437316
620,6041647.7382038655
622,6042860.481671099
624,6042154.932218581
626,6041489.477957272
628,6041022.165718616
630,6040635.1469492
632,6041158.951163509
634,6041736.293663322
636,6041692.4497356
638,6041335.265942624
640,6041858.999035828
642,6042594.261867782
644,6042307.77138206
646,6042621.8370139375
648,6043221.229631783
650,6042579.581769764
652,6041297.533564477
654,6040485.4573399
656,6040853.786325106
658,6041146.755792311
660,6041164.312945499
662,6041936.252317011
664,6038795.749379449
666,6026606.640485087
668,6004810.41870576
670,5969770.29103331
672,5915808.782362945
674,5843702.760538133
676,5755053.359750579
678,5648559.6236334145
680,5523316.962666971
682,5379232.340646483
684,5216891.058395961
686,5036692.22077643
688,4837518.42401551
690,4621775.87385335
692,4398275.618752634
694,4174345.4513339363
696,3955110.4430358117
698,3743830.666817302
700,3542655.0943215704
702,3353246.158134043
704,3177014.563765888
706,3015066.2684287988
708,2867914.19643064
710,2734705.7792216036
712,2614555.5337207885
714,2506952.1852086624
716,2411377.6172842467
718,2327211.084450382
720,2252893.6278200205
722,2185522.2418925287
724,2122235.5667546606
726,2060389.0604420833
728,1998040.7117919014
730,1934215.6753533424
732,1868566.1734251129
734,1801580.6085639799
736,1733135.7853856059
738,1661898.7150655063
740,1587583.141023847
742,1512561.3890954913
744,1438770.679894201
746,1365608.0778742477
748,1292420.1517850778
750,1220759.7580574674
752,1152640.6681338984
754,1088285.5621843399
756,1027046.4618376083
758,968787.3683180399
760,913822.9259108242
762,862557.4625390612
764,815515.4191722911
766,773002.4203319511
768,734542.6826040623
770,699540.4104837921
772,667792.0621445156
774,639287.9554039402
776,613865.6689038067
778,591175.6965315611
780,570804.2006226991
782,552161.4750037256
784,534653.5408903324
786,518060.1228369855
788,502401.6339385159
790,487607.09314079385
792,473412.40871264855
794,459548.5055080188
796,445896.1681760739
798,432409.5312566935
800,419053.7557199025
802,405813.52331998874
804,392670.048303616
806,379552.2868999357
808,366360.8184146601
810,353061.50848424656
812,339787.3612012231
814,326693.99774351105
816,313867.31360387185
818,301330.30397399707
820,289105.72631423414
822,277227.6821526066
824,265734.2949791632
826,254676.9659200753
828,244137.09271985458
830,234197.31282928452
832,224861.0758795881
834,216044.68551179802
836,207669.92325323547
838,199765.00430459372
840,192422.65106624353
842,185712.0832950806
844,179559.82911430037
846,173840.7097731048
848,168455.80164878065
850,163406.46901825815
852,158717.94737525933
854,154410.86755160356
856,150492.7302151385
858,146968.6702165419
860,143830.08504072574
862,141034.7427249832
864,138535.31794180532
866,136271.73576829772
868,134153.34775214343
870,132085.09425503595
872,130017.29793649176
874,128022.11170251292
876,126191.91778019049
878,124589.30859724386
880,123173.56833613101
882,121881.6017386877
884,120658.79327558621
886,119494.79412912876
888,118393.65300107763
890,117358.68889420533
892,116386.25449495179
894,115468.86921615253
896,114599.25564612291
898,113776.03156407557
900,113003.88529495147
902,112287.75671608109
904,111626.9404320608
906,111008.12475979752
908,110416.29060627978
910,109838.04674609737
912,109270.0428492156
914,108712.75330528233
916,108166.4900097333
918,107626.81938418065
920,107084.04583572045
922,106528.20011833274
924,105951.56749465338
926,105355.24386637463
928,104742.47713305033
930,104116.41081960943
932,103477.76587175857
934,102824.8283912124
936,102155.77765208718
938,101468.96191096492
940,100763.56375536116
942,100039.02281930708
944,99294.78348870932
946,98530.64570410931
948,97747.00843575306
950,96944.32822192705
952,96122.8809320804
954,95280.37740255828
956,94412.62233197759
958,93515.3751812109
960,92585.8069886799
962,91629.67069255751
964,90655.94468846438
966,89673.6129629503
968,88689.31193187783
970,87701.50781882348
972,86706.89057624574
974,85702.15805866296
976,84686.73774523557
978,83666.77118677652
980,82649.4136877505
982,81641.79684420812
984,80646.97822010599
986,79659.3539388301
988,78672.21179776799
990,77678.85703298335
992,76676.27746322259
994,75669.67016694536
996,74665.34189457062
998,73669.59853939223
