wave,flux
336,8850.235244717975
338,10842.497301109683
340,13759.339594679464
342,17252.397463696674
344,21226.580200756252
346,25856.193197179586
348,31117.160980902514
350,37612.85830589053
352,46502.40790123771
354,60339.48165033664
356,85161.04513297467
358,129002.65932617211
360,196170.51742656436
362,283746.13886827795
364,384782.3438986625
366,492535.2182336649
368,602194.2493278593
370,707689.9634582093
372,800726.060375896
374,869587.9630177652
376,905852.6397303191
378,913432.3149000616
380,908092.5108748879
382,905198.2701544277
384,910453.7212243534
386,929138.7087917458
388,977656.8806817911
390,1081124.720483866
392,1252066.7639821223
394,1474000.7962184728
396,1712697.8885230816
398,1941231.8342209514
400,2158084.9388964516
402,2376945.986906542
404,2612874.773892611
406,2878570.1149892155
408,3184495.285926259
410,3533377.598253977
412,3905116.653052975
414,4258230.891791398
416,4548669.788780027
418,4757731.586411888
420,4901420.464245801
422,5021557.178127999
424,5159538.832895678
426,5334416.37998722
428,5532903.624286252
430,5724141.087353447
432,5877126.682965313
434,5972852.59727861
436,6021675.253485193
438,6039239.039351488
440,6041310.0653914325
442,6041617.62805887
444,6041291.024977828
446,6041179.328779371
448,6041607.543034405
450,6041318.988559262
452,6040954.150321749
454,6041343.363278072
456,6041510.4852193715
458,6041560.430988432
460,6041222.95076435
462,6041785.356707804
464,6041438.614078913
466,6041214.349655804
468,6041019.092239559
470,6041490.347473249
472,6041635.385242913
474,6041473.617384873
476,6041299.35926013
478,6041690.335113739
480,6041869.103733254
482,6040866.074988941
484,6041294.82636633
486,6041721.653869794
488,6041278.706236028
490,6041439.59491991
492,6041304.894127158
494,6041219.906032807
496,6041543.279091104
498,6041435.413067494
500,6041436.845613169
502,6041480.485736092
504,6041815.965800589
506,6041118.440829649
508,6041242.644076775
510,6041188.421571329
512,6041586.947138266
514,6041589.352172287
516,6041621.356653848
518,6040910.1787172565
520,6041437.971751261
522,6041486.306102571
524,6041692.459150871
526,6041623.197739073
528,6041508.11324743
530,6041302.505140748
532,6041191.684643265
534,6041113.174118001
536,6040825.060707751
538,6041773.299232484
540,6041616.333831707
542,6041101.947444931
544,6041445.068471285
546,6041111.9176504705
548,6041016.6459343415
550,6041559.434770867
552,6041366.993471469
554,6041506.60123332
556,6041925.83541958
558,6041321.934398129
560,6041362.887829927
562,6041327.910102905
564,6041548.1286802
566,6041283.998333001
568,6041406.434064102
570,6041842.661149065
572,6041677.502960397
574,6041616.743575187
576,6041506.492530869
578,6041237.363964344
580,6041152.227728609
582,6041280.506536539
584,6041235.979918172
586,6041055.537417039
588,6041322.147382327
590,6041562.331290584
592,6041668.940493476
594,6041572.404914732
596,6041605.416145605
598,6041847.0060460325
600,6041095.7196423225
602,6041147.1582705695
604,6041441.447529078
606,6041222.121861508
608,6041293.778280676
610,6041327.491852369
612,6041203.755913377
614,6041328.465400259
616,6041734.450795298
618,6041406.336345188
620,6041380.093664527
622,6041608.495500971
624,6041297.071681921
626,6041785.964314954
628,6042096.693632145
630,6041572.628440767
632,6041531.938404074
634,6041898.929963228
636,6042369.656058305
638,6042860.350613408
640,6043296.145523054
642,6043602.172681761
644,6043703.563984046
646,6043525.451324426
648,6042992.966597421
650,6042031.241697548
652,6041722.968901059
654,6041397.696775854
656,6041151.17971753
658,6041511.428826241
660,6041551.26221974
662,6041377.486710646
664,6041484.487439656
666,6041443.750089368
668,6041107.991048773
670,6041563.760999665
672,6041267.2062764475
674,6041163.483843256
676,6041536.128915831
678,6041346.24345349
680,6041150.289956291
682,6041410.314774397
684,6041560.064687422
686,6041447.9187860545
688,6040955.81893969
690,6041315.875338955
692,6041350.307975556
694,6041850.281893436
696,6041497.367671758
698,6041199.302168769
700,6041453.64627868
702,6041828.693192877
704,6040860.42770877
706,6041675.622792104
708,6041571.681644926
710,6041346.454989626
712,6041546.234560798
714,6041858.824615336
716,6041142.5820534965
718,6041286.403162461
720,6041703.1207177285
722,6041807.585318082
724,6041329.8607438
726,6041296.890614847
728,6041527.288726995
730,6041723.792105585
732,6041192.330811199
734,6041150.1016538385
736,6041704.398114255
738,6041255.137810724
740,6041344.973276121
742,6041402.044472554
744,6041509.896928869
746,6041611.23472158
748,6041281.529689905
750,6041392.455248062
752,6040981.1977447625
754,6041295.389267499
756,6041239.4416478425
758,6041271.659960353
760,6041533.037164191
762,6033170.558480699
764,5997309.196911797
766,5919816.184365741
768,5789128.623488824
770,5591227.92157777
772,5331562.926099856
774,5030824.995786329
776,4699258.250554136
778,4346757.545140255
780,3987299.429810042
782,3631624.3336451664
784,3286378.269654552
786,2964560.482130975
788,2677357.907088312
790,2431812.978824052
792,2227005.630354121
794,2056991.6675400746
796,1912122.286436368
798,1783069.2196949078
800,1663500.214270693
802,1548744.6415391257
804,1440089.3704584274
806,1338355.7413583586
808,1246002.4351940232
810,1164641.9993123675
812,1094313.8934356393
814,1033315.1507154639
816,979276.3012057306
818,928884.3489745458
820,880151.1850921786
822,831067.2044299131
824,781134.7456778135
826,731197.4373941015
828,682133.9307999852
830,635157.065687494
832,590767.9318637582
834,549817.9262336656
836,511926.9827578021
838,476508.58827418834
840,442988.8091633684
842,410512.7161371145
844,378885.83903410326
846,347759.8550145639
848,317145.038704723
850,286997.5341464601
852,257814.11993689087
854,229635.74166079867
856,202883.51438950063
858,177548.2583061767
860,153963.78261275878
862,132580.8515415665
864,113288.53811543316
866,96239.40874515912
868,81413.00428997858
870,68826.20859127876
872,58133.754868965356
874,49160.33286656182
876,41666.7751322839
878,35497.06635140222
880,30295.018445045593
882,25695.68578759554
884,21591.37521759164
886,17852.922836174053
888,14389.809163301048
890,11160.697668091325
892,8122.388938503005
894,5540.658797514908
896,3560.8201047046186
898,2067.8082667675035
900,1036.1379326991748
902,389.7262820249188
904,91.05201843704549
906,33.85408597934234
908,10.175341117526877
910,0.4798427012002451
912,-3.482973111878331
914,2.393407046365594
916,-5.54246237681494
918,-0.29287613119402345
920,-2.3379566926154904
922,4.289920058427215
924,0.9442159283387628
926,-2.7336637591896857
928,1.0006701908683229
930,-1.3057717257606596
932,1.5404292547943992
934,4.001179039549514
936,-1.414773894536123
938,3.248233771030033
940,0.4896997775772239
942,3.269850699677664
944,0.8757233738836303
946,1.835094323646329
948,-1.5911823412967454
950,0.22756291881490442
952,1.4645588048001232
954,3.043621082643513
956,0.027056986644400358
958,-0.10659459427895207
960,-0.7023202398106899
962,-2.0064684457895754
964,-3.0020412361544704
966,-2.2327748367148637
968,-2.2451702637504916
970,3.087313082970052
972,-1.474238603491238
974,-1.3750943045639343
976,0.09099228775895851
978,-4.359327552662422
980,0.17173412192045567
982,0.5883557203648353
984,-0.6237451035931326
986,0.24693956783995888
988,-1.1733774690472267
990,1.089032408027303
992,0.5823660453244227
994,0.22070109661222787
996,-2.4283186811864717
998,-1.410528741235163
