wave,flux
336,265.99027136636823
338,437.63047914053277
340,595.79595901868
342,773.0930747197681
344,939.4645908847195
346,1102.7788065186044
348,1361.1646685277901
350,1810.0868746430965
352,2483.809571070772
354,3546.8930848097384
356,5089.643563260097
358,6938.44357921185
360,8966.712435988129
362,11414.735789972234
364,14508.820232787486
366,18338.2118374589
368,23026.325347921833
370,28827.445714201876
372,36041.669217083596
374,45213.16329934405
376,57497.43508905239
378,74260.5147382288
380,96349.10601416623
382,123817.11388894651
384,156272.66955498184
386,192129.69457610048
388,227868.70815563033
390,260441.84395913765
392,289928.2075715432
394,317233.97589600174
396,342912.71489347616
398,365497.831264337
400,386946.5394889231
402,411892.329570248
404,448551.92365146126
406,504685.8022984524
408,586312.3342321863
410,696618.5981165849
412,836254.930747581
414,1005595.6798531313
416,1204334.8972372531
418,1430628.8652059094
420,1676808.776211117
422,1931396.316642547
424,2184008.2079297323
426,2431881.1245132745
428,2683697.6608620915
430,2954512.9632439283
432,3259311.156380631
434,3602965.27561724
436,3983467.0401240424
438,4390485.933082051
440,4804183.475657485
442,5190764.583601368
444,5520240.122459557
446,5766586.9476047605
448,5920597.284860893
450,6002321.029299244
452,6034908.018209255
454,6041241.267131996
456,6041785.509830264
458,6041708.472077635
460,6041190.816005127
462,6041464.4215117665
464,6041849.2845323235
466,6041143.469604348
468,6041221.347841368
470,6041505.801713863
472,6041348.498419788
474,6041153.915714152
476,6041663.110852009
478,6041334.9661459075
480,6041666.572150985
482,6041370.076323527
484,6041315.215441083
486,6041285.115699121
488,6041436.588699545
490,6041370.846895475
492,6041982.416280153
494,6041244.3488364285
496,6041343.174934748
498,6041390.369755873
500,6041619.9688428845
502,6041402.493235895
504,6041882.833576463
506,6041312.139898699
508,6041520.352594696
510,6041045.277076512
512,6041659.863906631
514,6041614.19852559
516,6041015.98474657
518,6041218.34928918
520,6041393.811869002
522,6041408.1099037165
524,6041366.287365115
526,6041428.7803398045
528,6041495.695861148
530,6041287.010636431
532,6041660.567830935
534,6041466.372476471
536,6041568.563852961
538,6041425.355134766
540,6041981.444304513
542,6041343.302936422
544,6041550.474683644
546,6041841.557991644
548,6041179.915285974
550,6041079.149786606
552,6041696.12908181
554,6041892.890262089
556,6041267.424951608
558,6041366.429917519
560,6041704.338348992
562,6041625.539895334
564,6041622.982085605
566,6041137.222388973
568,6041216.389280641
570,6041348.3566843895
572,6041305.9457292
574,6041172.10846207
576,6041170.660691258
578,6041485.81133931
580,6041777.620351427
582,6041736.243957302
584,6041536.2593728695
586,6041423.95282843
588,6041381.858860483
590,6041369.756630195
592,6041512.088053515
594,6041537.933002414
596,6041438.505174679
598,6041378.884388008
600,6040840.514930187
602,6041182.406414067
604,6041755.088017631
606,6041661.593733231
608,6041430.603312025
610,6041374.061205265
612,6041502.221515853
614,6041579.124674195
616,6041487.967869503
618,6041576.924066829
620,6041923.205894408
622,6042161.703916844
624,6042074.868358706
626,6042346.542352926
628,6042053.569867098
630,6041065.932290566
632,6041001.167576538
634,6040934.496966907
636,6040686.473553015
638,6041126.329182517
640,6041742.1791352965
642,6042176.767590184
644,6042431.6372549515
646,6042517.890867493
648,6042446.631165691
650,6042228.960887431
652,6041875.982770602
654,6041398.799553091
656,6041145.410741404
658,6041511.057207026
660,6041551.251535381
662,6041377.486933387
664,6041484.487482849
666,6041443.750092373
668,6041107.9910489125
670,6041563.760999668
672,6041267.206276448
674,6041163.483843256
676,6041536.128915831
678,6041346.24345349
680,6041150.289956291
682,6041410.314774397
684,6041560.064687422
686,6041447.9187860545
688,6040955.81893969
690,6041315.875338955
692,6041350.307975556
694,6041850.281893436
696,6041497.367671758
698,6041199.302168769
700,6041453.64627868
702,6041828.693192877
704,6040860.42770877
706,6041675.622792104
708,6041571.681644926
710,6041346.454989626
712,6041546.234560798
714,6041858.824615336
716,6041142.5820534965
718,6041286.403162461
720,6041703.1207177285
722,6041807.585318082
724,6041329.8607438
726,6041296.890614847
728,6041527.288726995
730,6041723.792105585
732,6041192.330811199
734,6041150.1016538385
736,6041704.398114255
738,6041255.137810724
740,6041344.973276121
742,6041402.044472554
744,6041509.896928869
746,6041611.23472158
748,6041281.529689905
750,6041392.455248062
752,6040981.1977447625
754,6041295.389267499
756,6041239.4416478425
758,6041271.659960353
760,6041533.037164191
762,6033170.558480699
764,5997309.196911797
766,5919816.184365741
768,5789128.623488824
770,5591227.92157777
772,5331562.926099856
774,5030824.995786329
776,4699258.250554136
778,4346757.545140255
780,3987299.429810042
782,3631624.3336451664
784,3286378.269654552
786,2964560.482130975
788,2677357.907088312
790,2431812.978824052
792,2227005.630354121
794,2056991.6675400746
796,1912122.286436368
798,1783069.2196949078
800,1663500.214270693
802,1548744.6415391257
804,1440089.3704584274
806,1338355.7413583586
808,1246002.4351940232
810,1164641.9993123675
812,1094313.8934356393
814,1033315.1507154639
816,979276.3012057306
818,928884.3489745458
820,880151.1850921786
822,831067.2044299131
824,781134.7456778135
826,731197.4373941015
828,682133.9307999852
830,635157.065687494
832,590767.9318637582
834,549817.9262336656
836,511926.9827578021
838,476508.58827418834
840,442988.8091633684
842,410512.7161371145
844,378885.83903410326
846,347759.8550145639
848,317145.038704723
850,286997.5341464601
852,257814.11993689087
854,229635.74166079867
856,202883.51438950063
858,177548.2583061767
860,153963.78261275878
862,132580.8515415665
864,113288.53811543316
866,96239.40874515912
868,81413.00428997858
870,68826.20859127876
872,58133.754868965356
874,49160.33286656182
876,41666.7751322839
878,35497.06635140222
880,30295.018445045593
882,25695.68578759554
884,21591.37521759164
886,17852.922836174053
888,14389.809163301048
890,11160.697668091325
892,8122.388938503005
894,5540.658797514908
896,3560.8201047046186
898,2067.8082667675035
900,1036.1379326991748
902,389.7262820249188
904,91.05201843704549
906,33.85408597934234
908,10.175341117526877
910,0.4798427012002451
912,-3.482973111878331
914,2.393407046365594
916,-5.54246237681494
918,-0.29287613119402345
920,-2.3379566926154904
922,4.289920058427215
924,0.9442159283387628
926,-2.7336637591896857
928,1.0006701908683229
930,-1.3057717257606596
932,1.5404292547943992
934,4.001179039549514
936,-1.414773894536123
938,3.248233771030033
940,0.4896997775772239
942,3.269850699677664
944,0.8757233738836303
946,1.835094323646329
948,-1.5911823412967454
950,0.22756291881490442
952,1.4645588048001232
954,3.043621082643513
956,0.027056986644400358
958,-0.10659459427895207
960,-0.7023202398106899
962,-2.0064684457895754
964,-3.0020412361544704
966,-2.2327748367148637
968,-2.2451702637504916
970,3.087313082970052
972,-1.474238603491238
974,-1.3750943045639343
976,0.09099228775895851
978,-4.359327552662422
980,0.17173412192045567
982,0.5883557203648353
984,-0.6237451035931326
986,0.24693956783995888
988,-1.1733774690472267
990,1.089032408027303
992,0.5823660453244227
994,0.22070109661222787
996,-2.4283186811864717
998,-1.410528741235163
