wave,flux
336,54969.87187239889
338,64256.77592083509
340,77088.13484799588
342,93801.6980933922
344,111590.32013644747
346,129782.56283390924
348,147306.61270925138
350,163196.50268763764
352,186325.71384855136
354,225218.02433205448
356,270987.12093150517
358,307673.6204839789
360,330419.8289130216
362,342650.0681847136
364,349980.484586705
366,363370.48645837005
368,393648.8874464993
370,436699.09272969316
372,473606.4308973337
374,490665.847401528
376,493099.8843321728
378,495239.2378700761
380,505308.35996146285
382,522315.5502198335
384,543021.375436905
386,565720.3321405088
388,592727.4470362191
390,633107.4160024488
392,703875.1280548449
394,810380.6488396282
396,943891.0474404922
398,1081211.2604278047
400,1215017.1771899671
402,1346219.745670647
404,1485528.0808873416
406,1639724.303124919
408,1811402.4992059385
410,1993398.2726204477
412,2168424.642471483
414,2315482.98566129
416,2421495.635095365
418,2492447.2074592556
420,2554864.606726892
422,2642237.74802443
424,2780219.2013007794
426,2970473.511603663
428,3191273.7470283974
430,3405437.709091436
432,3575255.106918837
434,3680326.4803103083
436,3724193.800450324
438,3731693.6762998137
440,3735575.4611910526
442,3763201.933356098
444,3830050.6317000333
446,3938718.3733429466
448,4085925.837131833
450,4265791.502316159
452,4473301.4450724535
454,4708703.687688714
456,4965129.477513608
458,5225524.96333797
460,5473679.68285252
462,5690930.933366806
464,5850979.244829362
466,5954612.221093925
468,6013297.625729524
470,6037816.632888991
472,6041524.480992053
474,6041457.914772753
476,6041501.3719397355
478,6041301.241873954
480,6041699.163402701
482,6041249.254825972
484,6041199.735087163
486,6041687.038096574
488,6041300.529611764
490,6040974.512946482
492,6041387.177160692
494,6041154.403752129
496,6041530.195205452
498,6041218.055766071
500,6041612.082153945
502,6041402.781372627
504,6041009.484014148
506,6041503.9295579735
508,6041562.749653492
510,6041430.832699365
512,6041460.532758381
514,6041225.0679338
516,6041525.14500308
518,6041756.338562852
520,6041709.785945681
522,6041892.924860419
524,6041004.102133831
526,6041300.622725133
528,6041332.553769934
530,6041324.49497867
532,6041333.110306064
534,6041598.619207007
536,6041849.149352081
538,6041336.509046641
540,6041298.071571476
542,6041386.739124849
544,6041732.068018492
546,6041352.647090774
548,6041364.3025409095
550,6041435.738118678
552,6041801.554274395
554,6041358.388638391
556,6041518.684567782
558,6041669.873344574
560,6041436.952439171
562,6041450.651241831
564,6041354.523390687
566,6041339.95131944
568,6041625.9284101855
570,6041153.018484246
572,6041773.372998298
574,6041616.308032465
576,6041579.037031731
578,6041464.761115563
580,6041438.341776029
582,6041558.809427967
584,6041587.267677517
586,6041770.981160228
588,6041339.0589009365
590,6041143.676146544
592,6041234.969548242
594,6041395.15599504
596,6041206.220105305
598,6040725.832077852
600,6041315.614182437
602,6041466.8265631115
604,6041341.044567951
606,6041492.539028181
608,6041539.539693084
610,6041798.175515679
612,6041396.138419347
614,6041065.6974455565
616,6041617.84065364
618,6041001.174538092
620,6041308.480742173
622,6041890.550707542
624,6040903.491342247
626,6042555.589588288
628,6043341.761682371
630,6041681.720795909
632,6042680.404988285
634,6042585.876294965
636,6040681.298618232
638,6040386.860142931
640,6040486.313845477
642,6040536.4096700335
644,6041093.191253149
646,6041597.869490001
648,6041902.325259007
650,6042055.981806808
652,6041314.207780191
654,6040211.419570969
656,6040181.648248693
658,6040988.566523295
660,6041801.458026321
662,6041786.490071258
664,6041393.3166133
666,6041283.432239301
668,6041308.290350643
670,6041323.473080929
672,6041287.103940782
674,6041167.510166052
676,6041536.483244025
678,6041346.268423138
680,6041150.291523586
682,6041410.31486546
684,6041560.064692414
686,6041447.918786315
688,6040955.818939702
690,6041315.875338954
692,6041350.307975556
694,6041850.281893436
696,6041497.367671758
698,6041199.302168769
700,6041453.64627868
702,6041828.693192877
704,6040860.42770877
706,6041675.622792104
708,6041571.681644926
710,6041346.454989626
712,6041546.234560798
714,6041858.824615336
716,6041142.5820534965
718,6041286.403162461
720,6041703.1207177285
722,6041807.585318082
724,6041329.8607438
726,6041296.890614847
728,6041527.288726995
730,6041723.792105585
732,6041192.330811199
734,6041150.1016538385
736,6041704.398114255
738,6041255.137810724
740,6041344.973276121
742,6041402.044472554
744,6041509.896928869
746,6041611.23472158
748,6041281.529689905
750,6041392.455248062
752,6040981.1977447625
754,6041295.389267499
756,6041239.4416478425
758,6041271.659960353
760,6041533.037164191
762,6033170.558480699
764,5997309.196911797
766,5919816.184365741
768,5789128.623488824
770,5591227.92157777
772,5331562.926099856
774,5030824.995786329
776,4699258.250554136
778,4346757.545140255
780,3987299.429810042
782,3631624.3336451664
784,3286378.269654552
786,2964560.482130975
788,2677357.907088312
790,2431812.978824052
792,2227005.630354121
794,2056991.6675400746
796,1912122.286436368
798,1783069.2196949078
800,1663500.214270693
802,1548744.6415391257
804,1440089.3704584274
806,1338355.7413583586
808,1246002.4351940232
810,1164641.9993123675
812,1094313.8934356393
814,1033315.1507154639
816,979276.3012057306
818,928884.3489745458
820,880151.1850921786
822,831067.2044299131
824,781134.7456778135
826,731197.4373941015
828,682133.9307999852
830,635157.065687494
832,590767.9318637582
834,549817.9262336656
836,511926.9827578021
838,476508.58827418834
840,442988.8091633684
842,410512.7161371145
844,378885.83903410326
846,347759.8550145639
848,317145.038704723
850,286997.5341464601
852,257814.11993689087
854,229635.74166079867
856,202883.51438950063
858,177548.2583061767
860,153963.78261275878
862,132580.8515415665
864,113288.53811543316
866,96239.40874515912
868,81413.00428997858
870,68826.20859127876
872,58133.754868965356
874,49160.33286656182
876,41666.7751322839
878,35497.06635140222
880,30295.018445045593
882,25695.68578759554
884,21591.37521759164
886,17852.922836174053
888,14389.809163301048
890,11160.697668091325
892,8122.388938503005
894,5540.658797514908
896,3560.8201047046186
898,2067.8082667675035
900,1036.1379326991748
902,389.7262820249188
904,91.05201843704549
906,33.85408597934234
908,10.175341117526877
910,0.4798427012002451
912,-3.482973111878331
914,2.393407046365594
916,-5.54246237681494
918,-0.29287613119402345
920,-2.3379566926154904
922,4.289920058427215
924,0.9442159283387628
926,-2.7336637591896857
928,1.0006701908683229
930,-1.3057717257606596
932,1.5404292547943992
934,4.001179039549514
936,-1.414773894536123
938,3.248233771030033
940,0.4896997775772239
942,3.269850699677664
944,0.8757233738836303
946,1.835094323646329
948,-1.5911823412967454
950,0.22756291881490442
952,1.4645588048001232
954,3.043621082643513
956,0.027056986644400358
958,-0.10659459427895207
960,-0.7023202398106899
962,-2.0064684457895754
964,-3.0020412361544704
966,-2.2327748367148637
968,-2.2451702637504916
970,3.087313082970052
972,-1.474238603491238
974,-1.3750943045639343
976,0.09099228775895851
978,-4.359327552662422
980,0.17173412192045567
982,0.5883557203648353
984,-0.6237451035931326
986,0.24693956783995888
988,-1.1733774690472267
990,1.089032408027303
992,0.5823660453244227
994,0.22070109661222787
996,-2.4283186811864717
998,-1.410528741235163
