wave,flux
336,37898.576946209214
338,52858.58341619461
340,68328.42263842301
342,79607.8078734344
344,85896.72282517582
346,86817.92184615618
348,85462.12207756515
350,87705.93809999198
352,93681.02197180637
354,96673.36850695437
356,94027.88285126603
358,92650.6697025734
360,100411.51167666004
362,118942.36927337921
364,149140.84028564324
366,196533.54284622738
368,262456.0743603821
370,330684.12647511944
372,372296.67032234016
374,371824.0474234431
376,343930.919219793
378,319484.1773510789
380,320373.2558343739
382,348951.8310940211
384,392536.3037866311
386,435830.15390019893
388,471835.72373805405
390,511040.4762171638
392,578387.3203371395
394,674325.0810729146
396,776789.1274698653
398,851940.6720434224
400,909609.746872469
402,976230.0343104656
404,1078355.3060337466
406,1207738.7513886108
408,1338349.5518780209
410,1443030.1368942289
412,1508706.8398327825
414,1541140.5193197567
416,1559228.9360202423
418,1587721.3117714168
420,1650705.6696216096
422,1766442.0771281398
424,1944432.3975695632
426,2181247.903364089
428,2458179.534861272
430,2738913.1759998454
432,2980838.755600133
434,3147357.834585844
436,3227162.9103507074
438,3236439.83288044
440,3209345.5480566495
442,3179269.4832747956
444,3169808.5170985796
446,3192902.437234793
448,3254294.226649285
450,3359447.181892511
452,3515712.475595142
454,3739119.918130461
456,4041955.7935916623
458,4408452.409788665
460,4808060.153672608
462,5202655.300367726
464,5539796.224625673
466,5780456.573664612
468,5932350.078571965
470,6011564.744025498
472,6038867.512542035
474,6041410.551257843
476,6041262.80859139
478,6041116.840835083
480,6041654.672600925
482,6041399.783396507
484,6041448.295561805
486,6041608.585719401
488,6041538.065044784
490,6041250.4115275815
492,6041634.795001005
494,6041489.445536035
496,6041459.260406515
498,6041650.907804855
500,6041644.281389291
502,6041343.164502766
504,6041446.528128885
506,6041674.171341653
508,6040774.784997268
510,6041379.115449976
512,6041320.313387667
514,6041350.433510672
516,6041412.881636038
518,6041411.775144467
520,6041287.613799787
522,6041567.025054587
524,6041643.899334621
526,6041426.546759204
528,6041552.174286842
530,6041220.332674384
532,6041801.745354796
534,6041332.731252103
536,6041480.327411128
538,6041389.531693629
540,6041478.328729708
542,6041214.65949693
544,6041189.450977109
546,6041461.921869806
548,6041750.005178522
550,6041509.781750179
552,6041423.047908909
554,6041273.171996838
556,6041407.13051094
558,6041618.969697852
560,6041230.678190545
562,6041689.056645291
564,6041598.138116596
566,6041149.161772621
568,6041274.211382198
570,6041439.885026848
572,6041657.319258954
574,6041033.004446373
576,6041377.685604247
578,6041817.8165153675
580,6041450.2234806195
582,6041266.272093037
584,6041500.642287299
586,6041384.183749398
588,6041667.831277086
590,6041553.043478591
592,6041385.1911537545
594,6041278.910903308
596,6041118.750159888
598,6041217.781580269
600,6041622.122827741
602,6041658.270929972
604,6041490.570358285
606,6041380.165815086
608,6041330.66484572
610,6041859.894007972
612,6041593.613575066
614,6040904.795454895
616,6041245.790225113
618,6041756.029311184
620,6041603.609762417
622,6041048.765316589
624,6040700.038256789
626,6040000.694071315
628,6040020.167857049
630,6041155.806986016
632,6041860.428175261
634,6041748.184725602
636,6041734.020177707
638,6042425.102433132
640,6040865.445349625
642,6039013.559482893
644,6040547.894810933
646,6041521.685302338
648,6041005.21933464
650,6041460.665718591
652,6041708.472780529
654,6041397.690800244
656,6041151.21097802
658,6041511.430839943
660,6041551.262277636
662,6041377.48670944
664,6041484.487439422
666,6041443.750089353
668,6041107.991048773
670,6041563.760999665
672,6041267.2062764475
674,6041163.483843256
676,6041536.128915831
678,6041346.24345349
680,6041150.289956291
682,6041410.314774397
684,6041560.064687422
686,6041447.9187860545
688,6040955.81893969
690,6041315.875338955
692,6041350.307975556
694,6041850.281893436
696,6041497.367671758
698,6041199.302168769
700,6041453.64627868
702,6041828.693192877
704,6040860.42770877
706,6041675.622792104
708,6041571.681644926
710,6041346.454989626
712,6041546.234560798
714,6041858.824615336
716,6041142.5820534965
718,6041286.403162461
720,6041703.1207177285
722,6041807.585318082
724,6041329.8607438
726,6041296.890614847
728,6041527.288726995
730,6041723.792105585
732,6041192.330811199
734,6041150.1016538385
736,6041704.398114255
738,6041255.137810724
740,6041344.973276121
742,6041402.044472554
744,6041509.896928869
746,6041611.23472158
748,6041281.529689905
750,6041392.455248062
752,6040981.1977447625
754,6041295.389267499
756,6041239.4416478425
758,6041271.659960353
760,6041533.037164191
762,6033170.558480699
764,5997309.196911797
766,5919816.184365741
768,5789128.623488824
770,5591227.92157777
772,5331562.926099856
774,5030824.995786329
776,4699258.250554136
778,4346757.545140255
780,3987299.429810042
782,3631624.3336451664
784,3286378.269654552
786,2964560.482130975
788,2677357.907088312
790,2431812.978824052
792,2227005.630354121
794,2056991.6675400746
796,1912122.286436368
798,1783069.2196949078
800,1663500.214270693
802,1548744.6415391257
804,1440089.3704584274
806,1338355.7413583586
808,1246002.4351940232
810,1164641.9993123675
812,1094313.8934356393
814,1033315.1507154639
816,979276.3012057306
818,928884.3489745458
820,880151.1850921786
822,831067.2044299131
824,781134.7456778135
826,731197.4373941015
828,682133.9307999852
830,635157.065687494
832,590767.9318637582
834,549817.9262336656
836,511926.9827578021
838,476508.58827418834
840,442988.8091633684
842,410512.7161371145
844,378885.83903410326
846,347759.8550145639
848,317145.038704723
850,286997.5341464601
852,257814.11993689087
854,229635.74166079867
856,202883.51438950063
858,177548.2583061767
860,153963.78261275878
862,132580.8515415665
864,113288.53811543316
866,96239.40874515912
868,81413.00428997858
870,68826.20859127876
872,58133.754868965356
874,49160.33286656182
876,41666.7751322839
878,35497.06635140222
880,30295.018445045593
882,25695.68578759554
884,21591.37521759164
886,17852.922836174053
888,14389.809163301048
890,11160.697668091325
892,8122.388938503005
894,5540.658797514908
896,3560.8201047046186
898,2067.8082667675035
900,1036.1379326991748
902,389.7262820249188
904,91.05201843704549
906,33.85408597934234
908,10.175341117526877
910,0.4798427012002451
912,-3.482973111878331
914,2.393407046365594
916,-5.54246237681494
918,-0.29287613119402345
920,-2.3379566926154904
922,4.289920058427215
924,0.9442159283387628
926,-2.7336637591896857
928,1.0006701908683229
930,-1.3057717257606596
932,1.5404292547943992
934,4.001179039549514
936,-1.414773894536123
938,3.248233771030033
940,0.4896997775772239
942,3.269850699677664
944,0.8757233738836303
946,1.835094323646329
948,-1.5911823412967454
950,0.22756291881490442
952,1.4645588048001232
954,3.043621082643513
956,0.027056986644400358
958,-0.10659459427895207
960,-0.7023202398106899
962,-2.0064684457895754
964,-3.0020412361544704
966,-2.2327748367148637
968,-2.2451702637504916
970,3.087313082970052
972,-1.474238603491238
974,-1.3750943045639343
976,0.09099228775895851
978,-4.359327552662422
980,0.17173412192045567
982,0.5883557203648353
984,-0.6237451035931326
986,0.24693956783995888
988,-1.1733774690472267
990,1.089032408027303
992,0.5823660453244227
994,0.22070109661222787
996,-2.4283186811864717
998,-1.410528741235163
