wave,flux
336,504766.04531839443
338,704260.4981500647
340,854696.3299887795
342,941860.1992379496
344,1017992.7674262315
346,1084691.2260742993
348,1122881.648126706
350,1178740.5909943932
352,1295928.8112142996
354,1431246.5750614626
356,1551630.7198503793
358,1714497.845937172
360,1971355.1818124892
362,2272275.6228069225
364,2525606.8728714674
366,2687954.2558573955
368,2771158.699367097
370,2786159.211321828
372,2728345.73719442
374,2610155.5549557633
376,2471797.7814005436
378,2344067.211848577
380,2240659.096684275
382,2196658.7835106617
384,2281209.03239122
386,2552732.0265756897
388,3010903.7150643175
390,3586068.615073286
392,4184260.2631596485
394,4731460.748151392
396,5189476.901895626
398,5540931.982139405
400,5784936.065558619
402,5931918.270624473
404,6005020.271848532
406,6033197.6908761645
408,6040708.356259284
410,6041192.335866952
412,6041736.9741156185
414,6041525.826394458
416,6041283.559529776
418,6041353.604856132
420,6041414.026853672
422,6041247.032349168
424,6041433.504864358
426,6041773.110178703
428,6041482.393778283
430,6041276.425831927
432,6041756.634190386
434,6041651.360547822
436,6041399.984546861
438,6041348.708225067
440,6041148.0760292495
442,6041334.091733049
444,6041497.530997007
446,6041467.285851344
448,6041599.949045577
450,6041329.01967252
452,6041457.594369447
454,6041065.37034659
456,6041500.562271851
458,6041543.290925278
460,6041571.20525172
462,6041543.346216799
464,6041377.715560987
466,6041269.448703725
468,6041503.573502349
470,6041537.265271763
472,6041594.30090828
474,6041209.779029021
476,6041299.642217022
478,6040863.094435671
480,6041374.094790732
482,6041489.851360945
484,6040695.372818402
486,6042137.934069093
488,6041240.552880405
490,6041513.629092321
492,6041460.131720756
494,6040993.660717521
496,6041915.232313811
498,6040914.939928067
500,6041534.7962715365
502,6041699.070023407
504,6041428.077391158
506,6041723.453240245
508,6041458.17374746
510,6041296.83392877
512,6041438.010514803
514,6041466.147738589
516,6041453.288582835
518,6041286.501013379
520,6041471.826692961
522,6041343.6431332845
524,6041564.063155441
526,6041607.947130039
528,6041134.6084779585
530,6041200.139749192
532,6041593.599284821
534,6041309.109857442
536,6041292.866505827
538,6041485.94275981
540,6041270.242284269
542,6041612.451280225
544,6041612.501708893
546,6041227.961202564
548,6041318.264892711
550,6041396.077950912
552,6041104.148734828
554,6041670.000397481
556,6041680.315345099
558,6041187.006117605
560,6041272.970174387
562,6041440.185978145
564,6041037.447504352
566,6041038.320463479
568,6041383.640974465
570,6041535.671128855
572,6041309.872432692
574,6041517.100019154
576,6041106.134738334
578,6041417.669441668
580,6041528.735749983
582,6041267.613634075
584,6041564.091569586
586,6041297.064991759
588,6041137.600842624
590,6041056.791959051
592,6041079.343909015
594,6041145.587202534
596,6041245.292744766
598,6041333.947626708
600,6041097.124904649
602,6041413.772884432
604,6041670.79335549
606,6041398.694347509
608,6041194.990469259
610,6040903.037680072
612,6041344.800645081
614,6041956.282858678
616,6041638.638176937
618,6041326.757177802
620,6041180.14080159
622,6040854.073339275
624,6040302.477426886
626,6040371.512837917
628,6040726.326199563
630,6040667.389725992
632,6040191.366727424
634,6040575.204287982
636,6041164.715626442
638,6040473.823880537
640,6041255.084861216
642,6042437.565431481
644,6041188.520063076
646,6040183.501908574
648,6040936.278465604
650,6042790.412621485
652,6043595.068025784
654,6042529.534555397
656,6040509.3817572575
658,6039588.881933944
660,6040116.104599373
662,6040172.048906557
664,6039917.04496198
666,6039962.817331248
668,6039740.729239993
670,6039327.431072495
672,6039498.075654963
674,6040990.722891902
676,6043193.219807908
678,6042893.776569016
680,6040700.016594695
682,6040453.807635968
684,6041110.478795396
686,6040591.138103351
688,6040727.818196563
690,6041336.583611855
692,6041381.155958464
694,6041852.1679368615
696,6041497.509780531
698,6041199.31509623
700,6041453.647578856
702,6041828.693326993
704,6040860.427722395
706,6041675.622793442
708,6041571.681645052
710,6041346.454989637
712,6041546.234560799
714,6041858.824615336
716,6041142.5820534965
718,6041286.403162461
720,6041703.1207177285
722,6041807.585318082
724,6041329.8607438
726,6041296.890614847
728,6041527.288726995
730,6041723.792105585
732,6041192.330811199
734,6041150.1016538385
736,6041704.398114255
738,6041255.137810724
740,6041344.973276121
742,6041402.044472554
744,6041509.896928869
746,6041611.23472158
748,6041281.529689905
750,6041392.455248062
752,6040981.1977447625
754,6041295.389267499
756,6041239.4416478425
758,6041271.659960353
760,6041533.037164191
762,6033170.558480699
764,5997309.196911797
766,5919816.184365741
768,5789128.623488824
770,5591227.92157777
772,5331562.926099856
774,5030824.995786329
776,4699258.250554136
778,4346757.545140255
780,3987299.429810042
782,3631624.3336451664
784,3286378.269654552
786,2964560.482130975
788,2677357.907088312
790,2431812.978824052
792,2227005.630354121
794,2056991.6675400746
796,1912122.286436368
798,1783069.2196949078
800,1663500.214270693
802,1548744.6415391257
804,1440089.3704584274
806,1338355.7413583586
808,1246002.4351940232
810,1164641.9993123675
812,1094313.8934356393
814,1033315.1507154639
816,979276.3012057306
818,928884.3489745458
820,880151.1850921786
822,831067.2044299131
824,781134.7456778135
826,731197.4373941015
828,682133.9307999852
830,635157.065687494
832,590767.9318637582
834,549817.9262336656
836,511926.9827578021
838,476508.58827418834
840,442988.8091633684
842,410512.7161371145
844,378885.83903410326
846,347759.8550145639
848,317145.038704723
850,286997.5341464601
852,257814.11993689087
854,229635.74166079867
856,202883.51438950063
858,177548.2583061767
860,153963.78261275878
862,132580.8515415665
864,113288.53811543316
866,96239.40874515912
868,81413.00428997858
870,68826.20859127876
872,58133.754868965356
874,49160.33286656182
876,41666.7751322839
878,35497.06635140222
880,30295.018445045593
882,25695.68578759554
884,21591.37521759164
886,17852.922836174053
888,14389.809163301048
890,11160.697668091325
892,8122.388938503005
894,5540.658797514908
896,3560.8201047046186
898,2067.8082667675035
900,1036.1379326991748
902,389.7262820249188
904,91.05201843704549
906,33.85408597934234
908,10.175341117526877
910,0.4798427012002451
912,-3.482973111878331
914,2.393407046365594
916,-5.54246237681494
918,-0.29287613119402345
920,-2.3379566926154904
922,4.289920058427215
924,0.9442159283387628
926,-2.7336637591896857
928,1.0006701908683229
930,-1.3057717257606596
932,1.5404292547943992
934,4.001179039549514
936,-1.414773894536123
938,3.248233771030033
940,0.4896997775772239
942,3.269850699677664
944,0.8757233738836303
946,1.835094323646329
948,-1.5911823412967454
950,0.22756291881490442
952,1.4645588048001232
954,3.043621082643513
956,0.027056986644400358
958,-0.10659459427895207
960,-0.7023202398106899
962,-2.0064684457895754
964,-3.0020412361544704
966,-2.2327748367148637
968,-2.2451702637504916
970,3.087313082970052
972,-1.474238603491238
974,-1.3750943045639343
976,0.09099228775895851
978,-4.359327552662422
980,0.17173412192045567
982,0.5883557203648353
984,-0.6237451035931326
986,0.24693956783995888
988,-1.1733774690472267
990,1.089032408027303
992,0.5823660453244227
994,0.22070109661222787
996,-2.4283186811864717
998,-1.410528741235163
