wave,flux
336,17531.852168755267
338,22496.663421235175
340,28761.476213585018
342,35604.54569661747
344,43039.29478569834
346,51570.622631342994
348,61028.458656551324
350,71760.19640726257
352,85875.61909245209
354,109001.66599296457
356,152161.88197290973
358,228575.60170415425
360,345119.9725378806
362,496754.92542405677
364,670521.0129232105
366,854580.3618133689
368,1041250.75190604
370,1222183.0223942257
372,1383446.2658212422
374,1509493.8827428103
376,1592241.7765187141
378,1648068.2877303525
380,1714350.8431267773
382,1827932.7056564414
384,2001032.1259482203
386,2223579.1517439103
388,2482061.291073774
390,2765640.533727635
392,3054174.2537050406
394,3311969.6332955295
396,3508606.7713008844
398,3646584.7863624776
400,3765249.5114108766
402,3902141.2822803035
404,4065787.265687518
406,4235921.786568004
408,4386739.485458225
410,4508517.556639363
412,4605684.1251382595
414,4687385.465164603
416,4766641.491932479
418,4857825.373259216
420,4977821.623624292
422,5140598.28317545
424,5344189.920465117
426,5562463.246520304
428,5762163.016511015
430,5908901.649510278
432,5993729.939841013
434,6032032.146982933
436,6041451.404054405
438,6041609.839503043
440,6041591.994174527
442,6041333.837574895
444,6041169.612373342
446,6041365.361105127
448,6041384.472393149
450,6041790.526640004
452,6040703.759812815
454,6041516.301130922
456,6041076.36961138
458,6041362.909064687
460,6041109.618574819
462,6041589.537343435
464,6041251.182609639
466,6041442.920218756
468,6041584.63353939
470,6041301.080694296
472,6041745.938024864
474,6040948.590099711
476,6041241.16536892
478,6041765.284868218
480,6041594.367650186
482,6041447.660658216
484,6041387.865757173
486,6042057.387917322
488,6041690.03077713
490,6041510.052379857
492,6041276.115630735
494,6041010.967665491
496,6041601.886690183
498,6041210.776124496
500,6040844.596712636
502,6042024.589084631
504,6041289.949762728
506,6041723.031354213
508,6041444.829332277
510,6041680.380455757
512,6041424.267723121
514,6041207.087350431
516,6041184.283881512
518,6041218.522563643
520,6041458.391313413
522,6041442.82969539
524,6041140.135263035
526,6041808.377252148
528,6041405.336558469
530,6041502.330841684
532,6041283.019409308
534,6041256.303386987
536,6041471.805575595
538,6041124.605243666
540,6041135.673450906
542,6041427.668716099
544,6041599.914223452
546,6041557.588749649
548,6041141.729620431
550,6041365.876150076
552,6041605.551285297
554,6041397.551421536
556,6041342.544832287
558,6041477.307507066
560,6041340.262524059
562,6041355.2795293685
564,6041622.918370814
566,6041571.085725235
568,6041843.679507663
570,6041234.211770197
572,6040955.19052426
574,6041416.963622921
576,6041690.050140753
578,6041469.590944989
580,6041302.267173942
582,6041369.97525183
584,6041344.875802767
586,6041200.976229489
588,6041269.460064668
590,6041601.865260936
592,6041333.164311289
594,6040893.714714535
596,6041074.309326534
598,6041536.299087192
600,6041657.47129665
602,6041314.677161386
604,6041291.246666467
606,6041624.3454402555
608,6041483.793571863
610,6041295.151244718
612,6041259.281952752
614,6041251.911509135
616,6041264.304384663
618,6041573.690812144
620,6041235.532624233
622,6041008.188796417
624,6041933.488151838
626,6041377.959902419
628,6041100.821320102
630,6042444.213876849
632,6043071.479653864
634,6042209.027942914
636,6041058.901408631
638,6041220.326627867
640,6041209.317363803
642,6041462.332840318
644,6042463.7927170545
646,6039627.184332159
648,6037095.9836657485
650,6041178.142563721
652,6042357.335545974
654,6039914.247243609
656,6041133.181298701
658,6041881.270843058
660,6041608.421598292
662,6041373.69061701
664,6041483.751323199
666,6041443.698893173
668,6041107.9886765815
670,6041563.760940033
672,6041267.206278117
674,6041163.483843594
676,6041536.12891586
678,6041346.2434534915
680,6041150.289956291
682,6041410.314774397
684,6041560.064687422
686,6041447.9187860545
688,6040955.81893969
690,6041315.875338955
692,6041350.307975556
694,6041850.281893436
696,6041497.367671758
698,6041199.302168769
700,6041453.64627868
702,6041828.693192877
704,6040860.42770877
706,6041675.622792104
708,6041571.681644926
710,6041346.454989626
712,6041546.234560798
714,6041858.824615336
716,6041142.5820534965
718,6041286.403162461
720,6041703.1207177285
722,6041807.585318082
724,6041329.8607438
726,6041296.890614847
728,6041527.288726995
730,6041723.792105585
732,6041192.330811199
734,6041150.1016538385
736,6041704.398114255
738,6041255.137810724
740,6041344.973276121
742,6041402.044472554
744,6041509.896928869
746,6041611.23472158
748,6041281.529689905
750,6041392.455248062
752,6040981.1977447625
754,6041295.389267499
756,6041239.4416478425
758,6041271.659960353
760,6041533.037164191
762,6033170.558480699
764,5997309.196911797
766,5919816.184365741
768,5789128.623488824
770,5591227.92157777
772,5331562.926099856
774,5030824.995786329
776,4699258.250554136
778,4346757.545140255
780,3987299.429810042
782,3631624.3336451664
784,3286378.269654552
786,2964560.482130975
788,2677357.907088312
790,2431812.978824052
792,2227005.630354121
794,2056991.6675400746
796,1912122.286436368
798,1783069.2196949078
800,1663500.214270693
802,1548744.6415391257
804,1440089.3704584274
806,1338355.7413583586
808,1246002.4351940232
810,1164641.9993123675
812,1094313.8934356393
814,1033315.1507154639
816,979276.3012057306
818,928884.3489745458
820,880151.1850921786
822,831067.2044299131
824,781134.7456778135
826,731197.4373941015
828,682133.9307999852
830,635157.065687494
832,590767.9318637582
834,549817.9262336656
836,511926.9827578021
838,476508.58827418834
840,442988.8091633684
842,410512.7161371145
844,378885.83903410326
846,347759.8550145639
848,317145.038704723
850,286997.5341464601
852,257814.11993689087
854,229635.74166079867
856,202883.51438950063
858,177548.2583061767
860,153963.78261275878
862,132580.8515415665
864,113288.53811543316
866,96239.40874515912
868,81413.00428997858
870,68826.20859127876
872,58133.754868965356
874,49160.33286656182
876,41666.7751322839
878,35497.06635140222
880,30295.018445045593
882,25695.68578759554
884,21591.37521759164
886,17852.922836174053
888,14389.809163301048
890,11160.697668091325
892,8122.388938503005
894,5540.658797514908
896,3560.8201047046186
898,2067.8082667675035
900,1036.1379326991748
902,389.7262820249188
904,91.05201843704549
906,33.85408597934234
908,10.175341117526877
910,0.4798427012002451
912,-3.482973111878331
914,2.393407046365594
916,-5.54246237681494
918,-0.29287613119402345
920,-2.3379566926154904
922,4.289920058427215
924,0.9442159283387628
926,-2.7336637591896857
928,1.0006701908683229
930,-1.3057717257606596
932,1.5404292547943992
934,4.001179039549514
936,-1.414773894536123
938,3.248233771030033
940,0.4896997775772239
942,3.269850699677664
944,0.8757233738836303
946,1.835094323646329
948,-1.5911823412967454
950,0.22756291881490442
952,1.4645588048001232
954,3.043621082643513
956,0.027056986644400358
958,-0.10659459427895207
960,-0.7023202398106899
962,-2.0064684457895754
964,-3.0020412361544704
966,-2.2327748367148637
968,-2.2451702637504916
970,3.087313082970052
972,-1.474238603491238
974,-1.3750943045639343
976,0.09099228775895851
978,-4.359327552662422
980,0.17173412192045567
982,0.5883557203648353
984,-0.6237451035931326
986,0.24693956783995888
988,-1.1733774690472267
990,1.089032408027303
992,0.5823660453244227
994,0.22070109661222787
996,-2.4283186811864717
998,-1.410528741235163
