wave,flux
336,50673.71920160184
338,65596.62088980003
340,84981.01000627111
342,105369.99791709278
344,127533.66631829212
346,151693.3946965263
348,174045.31506456778
350,191152.92286816594
352,205543.64231367072
354,227610.7411531477
356,265270.5622287228
358,310586.8870870657
360,345318.8233141766
362,361190.23062558245
364,367595.5720614672
366,378601.4957920404
368,397969.2973758212
370,418570.6632790916
372,433125.2018922791
374,443160.3669525637
376,459689.29203751154
378,493605.76972966385
380,547053.5251388814
382,611022.1015726342
384,673617.3195171041
386,730116.6226623345
388,788344.1462230978
390,865716.0474284027
392,981362.887288013
394,1144442.4142908363
396,1348069.2091912962
398,1568229.537596064
400,1772087.4710173034
402,1933273.102154647
404,2046358.727555518
406,2135467.4868523395
408,2240658.4370529437
410,2394295.297054383
412,2599920.2179006273
414,2830605.518039465
416,3048756.363296624
418,3231383.992370078
420,3379949.3379438245
422,3515957.241513043
424,3660453.837698815
426,3826131.970377742
428,4012716.0995720937
430,4213515.129058565
432,4421786.525272392
434,4635893.035616238
436,4859854.533702189
438,5098210.547120616
440,5341176.557364516
442,5571341.607807426
444,5768180.168916931
446,5906717.496161413
448,5988614.1324295355
450,6029337.576580319
452,6040766.965318195
454,6041069.228434779
456,6041450.025292017
458,6041096.487075644
460,6041452.694940584
462,6041419.714728326
464,6041837.249111291
466,6041377.52171729
468,6041710.37788539
470,6041555.717999572
472,6041368.286784225
474,6041010.119681488
476,6041505.87624295
478,6041419.932977913
480,6041065.422038852
482,6041589.111599813
484,6041306.204432335
486,6041555.456121935
488,6041220.5715241665
490,6041194.2994529735
492,6041158.913599953
494,6041254.105366455
496,6041440.7121876795
498,6041444.48672156
500,6041473.076376599
502,6041099.183833858
504,6041682.18755439
506,6041411.0892399885
508,6041539.385852104
510,6041074.659365929
512,6041387.110808488
514,6041470.513469882
516,6041365.075970743
518,6041031.769015034
520,6041553.0196729535
522,6041540.147560019
524,6041475.221876628
526,6041287.775530286
528,6041183.072941843
530,6041393.047117707
532,6041397.816069214
534,6041258.769739587
536,6041480.947255526
538,6041127.644304961
540,6041521.702065332
542,6041608.098485036
544,6041284.489517168
546,6041638.590721646
548,6041610.065515711
550,6040971.880176013
552,6041384.081874154
554,6041637.153849042
556,6041279.947801597
558,6041310.1540812645
560,6041313.13990244
562,6041335.908872977
564,6041373.865657965
566,6041777.8527502995
568,6041654.8545844145
570,6041075.268979581
572,6041481.032773875
574,6041387.553176565
576,6041704.222672181
578,6041545.432603025
580,6041707.015522812
582,6042070.455829672
584,6041607.565068107
586,6041415.63957394
588,6041262.027876076
590,6041521.14168098
592,6041628.596543871
594,6041336.6981182275
596,6041200.301938697
598,6041494.714820773
600,6041454.0475741355
602,6041302.345002081
604,6041477.245560853
606,6041781.268250151
608,6041649.516249984
610,6041268.07388184
612,6040969.420923654
614,6041001.686123784
616,6041272.213722523
618,6041144.335943885
620,6039997.312239339
622,6039316.251654956
624,6040910.75529602
626,6042669.22654694
628,6042726.360886422
630,6041796.444867049
632,6042463.682915888
634,6042177.971327065
636,6040744.213183939
638,6040883.790712994
640,6042426.542874159
642,6043108.4601729615
644,6041472.443124869
646,6041397.011530603
648,6042496.005687295
650,6041745.222485771
652,6040423.942264303
654,6040399.513318784
656,6042343.682920386
658,6043023.799129542
660,6041965.416482123
662,6041377.958881222
664,6041484.579000234
666,6041443.75645732
668,6041107.9913438335
670,6041563.761007082
672,6041267.206276241
674,6041163.483843215
676,6041536.128915829
678,6041346.24345349
680,6041150.289956291
682,6041410.314774397
684,6041560.064687422
686,6041447.9187860545
688,6040955.81893969
690,6041315.875338955
692,6041350.307975556
694,6041850.281893436
696,6041497.367671758
698,6041199.302168769
700,6041453.64627868
702,6041828.693192877
704,6040860.42770877
706,6041675.622792104
708,6041571.681644926
710,6041346.454989626
712,6041546.234560798
714,6041858.824615336
716,6041142.5820534965
718,6041286.403162461
720,6041703.1207177285
722,6041807.585318082
724,6041329.8607438
726,6041296.890614847
728,6041527.288726995
730,6041723.792105585
732,6041192.330811199
734,6041150.1016538385
736,6041704.398114255
738,6041255.137810724
740,6041344.973276121
742,6041402.044472554
744,6041509.896928869
746,6041611.23472158
748,6041281.529689905
750,6041392.455248062
752,6040981.1977447625
754,6041295.389267499
756,6041239.4416478425
758,6041271.659960353
760,6041533.037164191
762,6033170.558480699
764,5997309.196911797
766,5919816.184365741
768,5789128.623488824
770,5591227.92157777
772,5331562.926099856
774,5030824.995786329
776,4699258.250554136
778,4346757.545140255
780,3987299.429810042
782,3631624.3336451664
784,3286378.269654552
786,2964560.482130975
788,2677357.907088312
790,2431812.978824052
792,2227005.630354121
794,2056991.6675400746
796,1912122.286436368
798,1783069.2196949078
800,1663500.214270693
802,1548744.6415391257
804,1440089.3704584274
806,1338355.7413583586
808,1246002.4351940232
810,1164641.9993123675
812,1094313.8934356393
814,1033315.1507154639
816,979276.3012057306
818,928884.3489745458
820,880151.1850921786
822,831067.2044299131
824,781134.7456778135
826,731197.4373941015
828,682133.9307999852
830,635157.065687494
832,590767.9318637582
834,549817.9262336656
836,511926.9827578021
838,476508.58827418834
840,442988.8091633684
842,410512.7161371145
844,378885.83903410326
846,347759.8550145639
848,317145.038704723
850,286997.5341464601
852,257814.11993689087
854,229635.74166079867
856,202883.51438950063
858,177548.2583061767
860,153963.78261275878
862,132580.8515415665
864,113288.53811543316
866,96239.40874515912
868,81413.00428997858
870,68826.20859127876
872,58133.754868965356
874,49160.33286656182
876,41666.7751322839
878,35497.06635140222
880,30295.018445045593
882,25695.68578759554
884,21591.37521759164
886,17852.922836174053
888,14389.809163301048
890,11160.697668091325
892,8122.388938503005
894,5540.658797514908
896,3560.8201047046186
898,2067.8082667675035
900,1036.1379326991748
902,389.7262820249188
904,91.05201843704549
906,33.85408597934234
908,10.175341117526877
910,0.4798427012002451
912,-3.482973111878331
914,2.393407046365594
916,-5.54246237681494
918,-0.29287613119402345
920,-2.3379566926154904
922,4.289920058427215
924,0.9442159283387628
926,-2.7336637591896857
928,1.0006701908683229
930,-1.3057717257606596
932,1.5404292547943992
934,4.001179039549514
936,-1.414773894536123
938,3.248233771030033
940,0.4896997775772239
942,3.269850699677664
944,0.8757233738836303
946,1.835094323646329
948,-1.5911823412967454
950,0.22756291881490442
952,1.4645588048001232
954,3.043621082643513
956,0.027056986644400358
958,-0.10659459427895207
960,-0.7023202398106899
962,-2.0064684457895754
964,-3.0020412361544704
966,-2.2327748367148637
968,-2.2451702637504916
970,3.087313082970052
972,-1.474238603491238
974,-1.3750943045639343
976,0.09099228775895851
978,-4.359327552662422
980,0.17173412192045567
982,0.5883557203648353
984,-0.6237451035931326
986,0.24693956783995888
988,-1.1733774690472267
990,1.089032408027303
992,0.5823660453244227
994,0.22070109661222787
996,-2.4283186811864717
998,-1.410528741235163
