wave,flux
336,1590.0440212041774
338,3024.1495315932852
340,4994.584423666525
342,7339.661502710216
344,9986.06071536538
346,12741.5416601245
348,15605.9059475442
350,18364.461033256495
352,21288.136685520105
354,25323.74730557518
356,30783.54228393908
358,36914.88579949796
360,42949.37418035122
362,49194.47255901628
364,56222.28610526415
366,63983.54448995234
368,72418.28402861975
370,81843.70205216586
372,93719.30525019024
374,113368.32785972646
376,150921.40170699934
378,216580.1150677665
380,312358.7444294116
382,432521.29001467105
384,575576.4149758928
386,751869.4278136371
388,975503.3768644626
390,1243690.2540189268
392,1535368.5977497192
394,1817760.0725567779
396,2063707.555523059
398,2255616.2666828753
400,2389033.043954327
402,2462878.4639480263
404,2477974.2660520696
406,2435935.070134881
408,2346497.9294933705
410,2232150.391855371
412,2132786.6207630006
414,2097978.9621619303
416,2165628.5714910533
418,2338633.7788415193
420,2573710.8324729563
422,2798169.0035075448
424,2944316.065017788
426,2987072.8897548374
428,2953795.297304374
430,2906388.4191970797
432,2903556.9625224653
434,2973404.974770457
436,3105635.912511646
438,3265516.6101759966
440,3416271.2004333376
442,3532863.5409657885
444,3608141.7280178857
446,3653839.0690978444
448,3693001.5018866467
450,3753842.6179939276
452,3861771.700466612
454,4033517.1818703962
456,4268271.738483049
458,4545020.122731749
460,4830413.980551183
462,5090466.652342091
464,5302974.610966505
466,5469179.405116328
468,5593681.308877666
470,5694347.4030985255
472,5785092.181885395
474,5870850.103003746
476,5937146.51354205
478,5987663.966136121
480,6021215.015328923
482,6038274.9373931615
484,6041520.246213849
486,6041484.013264742
488,6041782.366273856
490,6041636.092919771
492,6041130.7019603755
494,6041239.456625424
496,6041190.164476792
498,6042011.377583184
500,6041337.325383798
502,6041316.090825676
504,6040903.200817874
506,6041410.745286075
508,6041136.048682644
510,6041426.782746157
512,6041293.547979701
514,6041047.965561302
516,6041496.4176784335
518,6041339.304332984
520,6041563.715358819
522,6041459.492071865
524,6041452.337603007
526,6041146.928640916
528,6041560.596346435
530,6041414.260819855
532,6041116.446777351
534,6041635.580681486
536,6041436.488124577
538,6041086.8027533265
540,6041320.6742713265
542,6041633.205634524
544,6041314.700287878
546,6041133.240001746
548,6041250.945478363
550,6041388.8179375
552,6041430.842686262
554,6041306.648314619
556,6040816.06153375
558,6041360.400586136
560,6041562.844514818
562,6041398.7058283575
564,6041247.961528501
566,6041022.6644503735
568,6041214.98738918
570,6041519.906592984
572,6041598.625710421
574,6041261.192349272
576,6041251.973900999
578,6041179.929103419
580,6041336.427286088
582,6041589.855757925
584,6041549.8420651285
586,6041618.753792907
588,6041261.404761928
590,6041619.982915393
592,6041674.83814867
594,6041061.888761402
596,6040924.805736914
598,6041596.1928621465
600,6041480.517430394
602,6041514.646073535
604,6041755.763944181
606,6041620.183949283
608,6041193.109108182
610,6041074.1998695
612,6041250.07326834
614,6041345.241503225
616,6041161.541559388
618,6041032.399699169
620,6041235.784241725
622,6041380.590311149
624,6041019.35822367
626,6040909.372432474
628,6041119.194112283
630,6041501.464452517
632,6041990.578417569
634,6041580.337434195
636,6040633.948385885
638,6040754.439834907
640,6042213.760511323
642,6042202.997436755
644,6038967.042325917
646,6039523.649435414
648,6042639.604352784
650,6042262.2977600545
652,6040794.367668478
654,6040104.793244991
656,6040039.67708053
658,6040373.089896956
660,6040879.102416139
662,6041331.785359941
664,6041503.3682660265
666,6041445.063232799
668,6041108.051893679
670,6041563.762529175
672,6041267.206233663
674,6041163.483834597
676,6041536.12891507
678,6041346.243453436
680,6041150.289956288
682,6041410.314774397
684,6041560.064687422
686,6041447.9187860545
688,6040955.81893969
690,6041315.875338955
692,6041350.307975556
694,6041850.281893436
696,6041497.367671758
698,6041199.302168769
700,6041453.64627868
702,6041828.693192877
704,6040860.42770877
706,6041675.622792104
708,6041571.681644926
710,6041346.454989626
712,6041546.234560798
714,6041858.824615336
716,6041142.5820534965
718,6041286.403162461
720,6041703.1207177285
722,6041807.585318082
724,6041329.8607438
726,6041296.890614847
728,6041527.288726995
730,6041723.792105585
732,6041192.330811199
734,6041150.1016538385
736,6041704.398114255
738,6041255.137810724
740,6041344.973276121
742,6041402.044472554
744,6041509.896928869
746,6041611.23472158
748,6041281.529689905
750,6041392.455248062
752,6040981.1977447625
754,6041295.389267499
756,6041239.4416478425
758,6041271.659960353
760,6041533.037164191
762,6033170.558480699
764,5997309.196911797
766,5919816.184365741
768,5789128.623488824
770,5591227.92157777
772,5331562.926099856
774,5030824.995786329
776,4699258.250554136
778,4346757.545140255
780,3987299.429810042
782,3631624.3336451664
784,3286378.269654552
786,2964560.482130975
788,2677357.907088312
790,2431812.978824052
792,2227005.630354121
794,2056991.6675400746
796,1912122.286436368
798,1783069.2196949078
800,1663500.214270693
802,1548744.6415391257
804,1440089.3704584274
806,1338355.7413583586
808,1246002.4351940232
810,1164641.9993123675
812,1094313.8934356393
814,1033315.1507154639
816,979276.3012057306
818,928884.3489745458
820,880151.1850921786
822,831067.2044299131
824,781134.7456778135
826,731197.4373941015
828,682133.9307999852
830,635157.065687494
832,590767.9318637582
834,549817.9262336656
836,511926.9827578021
838,476508.58827418834
840,442988.8091633684
842,410512.7161371145
844,378885.83903410326
846,347759.8550145639
848,317145.038704723
850,286997.5341464601
852,257814.11993689087
854,229635.74166079867
856,202883.51438950063
858,177548.2583061767
860,153963.78261275878
862,132580.8515415665
864,113288.53811543316
866,96239.40874515912
868,81413.00428997858
870,68826.20859127876
872,58133.754868965356
874,49160.33286656182
876,41666.7751322839
878,35497.06635140222
880,30295.018445045593
882,25695.68578759554
884,21591.37521759164
886,17852.922836174053
888,14389.809163301048
890,11160.697668091325
892,8122.388938503005
894,5540.658797514908
896,3560.8201047046186
898,2067.8082667675035
900,1036.1379326991748
902,389.7262820249188
904,91.05201843704549
906,33.85408597934234
908,10.175341117526877
910,0.4798427012002451
912,-3.482973111878331
914,2.393407046365594
916,-5.54246237681494
918,-0.29287613119402345
920,-2.3379566926154904
922,4.289920058427215
924,0.9442159283387628
926,-2.7336637591896857
928,1.0006701908683229
930,-1.3057717257606596
932,1.5404292547943992
934,4.001179039549514
936,-1.414773894536123
938,3.248233771030033
940,0.4896997775772239
942,3.269850699677664
944,0.8757233738836303
946,1.835094323646329
948,-1.5911823412967454
950,0.22756291881490442
952,1.4645588048001232
954,3.043621082643513
956,0.027056986644400358
958,-0.10659459427895207
960,-0.7023202398106899
962,-2.0064684457895754
964,-3.0020412361544704
966,-2.2327748367148637
968,-2.2451702637504916
970,3.087313082970052
972,-1.474238603491238
974,-1.3750943045639343
976,0.09099228775895851
978,-4.359327552662422
980,0.17173412192045567
982,0.5883557203648353
984,-0.6237451035931326
986,0.24693956783995888
988,-1.1733774690472267
990,1.089032408027303
992,0.5823660453244227
994,0.22070109661222787
996,-2.4283186811864717
998,-1.410528741235163
