wave,flux
336,442537.9007687136
338,549631.8010100379
340,642213.1657877786
342,737845.0370156572
344,831646.1377386434
346,912728.4646522846
348,1011986.9905931375
350,1150508.4434277918
352,1286106.578298536
354,1386761.2669200718
356,1485284.6814953526
358,1612195.181569315
360,1727606.9622824425
362,1752415.3149486717
364,1672170.5765177074
366,1580375.383874178
368,1581002.4895313848
370,1676326.596696113
372,1771596.5185333826
374,1782852.9544742422
376,1717304.3442539158
378,1652342.739377027
380,1658705.629852411
382,1754522.7992034163
384,1917187.397029394
386,2117148.6144816927
388,2349169.129117285
390,2637371.450233293
392,3007272.8121838756
394,3439072.5691982755
396,3864048.522197082
398,4215735.819974825
400,4482370.019887398
402,4709435.346679582
404,4945888.745091659
406,5211935.069044542
408,5483886.082101511
410,5722025.857047027
412,5896239.306803119
414,5992195.612127148
416,6032881.714426359
418,6041399.247434678
420,6041619.404456146
422,6041266.548677816
424,6041757.887155146
426,6041336.172080295
428,6041288.343113764
430,6041231.956732154
432,6041856.182147071
434,6041322.919439451
436,6041435.626455219
438,6041470.985870385
440,6041377.679303458
442,6041204.01106577
444,6041619.114423944
446,6041358.166501096
448,6041476.288227369
450,6041369.543095033
452,6041803.170800323
454,6041824.08321204
456,6041562.299819564
458,6041441.257643772
460,6041637.926420332
462,6041353.399470706
464,6041220.047578079
466,6041292.499012304
468,6041249.20646235
470,6041613.326167795
472,6041339.766696337
474,6041322.500359908
476,6041452.188033194
478,6041732.230557403
480,6041538.4371191
482,6040875.7791284695
484,6041216.783738238
486,6041254.553048266
488,6041148.025051995
490,6041202.099286038
492,6041778.3064064365
494,6041225.387024807
496,6041657.519464729
498,6041479.361199944
500,6041382.153789279
502,6041479.794327445
504,6041157.478196376
506,6041345.09175585
508,6041335.583886374
510,6041320.226560974
512,6041560.622764868
514,6041789.127221914
516,6041559.1098360745
518,6041796.321650097
520,6041647.723778027
522,6041345.397562987
524,6041710.369594842
526,6041474.52622706
528,6041436.938454308
530,6041051.610686082
532,6041447.640860643
534,6041454.180973237
536,6040995.398153749
538,6041263.010916697
540,6041301.569373598
542,6041656.504982228
544,6041550.592782636
546,6041047.050232553
548,6041384.526583409
550,6041758.98561819
552,6041482.405327524
554,6041397.976139453
556,6041502.589545169
558,6041533.06618699
560,6041533.218925806
562,6041449.910486015
564,6041870.257152101
566,6041470.124768253
568,6041516.5887154825
570,6041168.039828111
572,6041498.819286303
574,6041026.396406544
576,6041150.724152477
578,6041638.315077073
580,6041457.567890268
582,6041048.41465163
584,6041063.626880835
586,6041326.676302384
588,6041828.195597908
590,6041543.277444911
592,6041401.308019689
594,6041508.2841296205
596,6041077.377266233
598,6040552.288452891
600,6041386.489944422
602,6041671.657117952
604,6041315.731818322
606,6041236.140573646
608,6041441.945018281
610,6041620.407505135
612,6041502.615046686
614,6041109.876523557
616,6040808.8010559715
618,6041071.337990981
620,6041581.646234216
622,6041644.759176454
624,6041167.648103209
626,6041526.081542017
628,6042284.146159479
630,6042393.859116964
632,6041670.608291612
634,6041335.799224749
636,6041525.63696799
638,6041219.980174675
640,6040324.481450861
642,6039545.063108559
644,6039877.180746691
646,6041625.446382306
648,6042499.232801889
650,6040499.114254392
652,6040120.74744765
654,6040254.966931935
656,6037552.846612811
658,6041951.890025196
660,6041827.520510358
662,6041357.568264329
664,6041480.624970099
666,6041443.4814583035
668,6041107.97860167
670,6041563.760686771
672,6041267.206285202
674,6041163.483845027
676,6041536.128915988
678,6041346.243453501
680,6041150.289956292
682,6041410.314774397
684,6041560.064687422
686,6041447.9187860545
688,6040955.81893969
690,6041315.875338955
692,6041350.307975556
694,6041850.281893436
696,6041497.367671758
698,6041199.302168769
700,6041453.64627868
702,6041828.693192877
704,6040860.42770877
706,6041675.622792104
708,6041571.681644926
710,6041346.454989626
712,6041546.234560798
714,6041858.824615336
716,6041142.5820534965
718,6041286.403162461
720,6041703.1207177285
722,6041807.585318082
724,6041329.8607438
726,6041296.890614847
728,6041527.288726995
730,6041723.792105585
732,6041192.330811199
734,6041150.1016538385
736,6041704.398114255
738,6041255.137810724
740,6041344.973276121
742,6041402.044472554
744,6041509.896928869
746,6041611.23472158
748,6041281.529689905
750,6041392.455248062
752,6040981.1977447625
754,6041295.389267499
756,6041239.4416478425
758,6041271.659960353
760,6041533.037164191
762,6033170.558480699
764,5997309.196911797
766,5919816.184365741
768,5789128.623488824
770,5591227.92157777
772,5331562.926099856
774,5030824.995786329
776,4699258.250554136
778,4346757.545140255
780,3987299.429810042
782,3631624.3336451664
784,3286378.269654552
786,2964560.482130975
788,2677357.907088312
790,2431812.978824052
792,2227005.630354121
794,2056991.6675400746
796,1912122.286436368
798,1783069.2196949078
800,1663500.214270693
802,1548744.6415391257
804,1440089.3704584274
806,1338355.7413583586
808,1246002.4351940232
810,1164641.9993123675
812,1094313.8934356393
814,1033315.1507154639
816,979276.3012057306
818,928884.3489745458
820,880151.1850921786
822,831067.2044299131
824,781134.7456778135
826,731197.4373941015
828,682133.9307999852
830,635157.065687494
832,590767.9318637582
834,549817.9262336656
836,511926.9827578021
838,476508.58827418834
840,442988.8091633684
842,410512.7161371145
844,378885.83903410326
846,347759.8550145639
848,317145.038704723
850,286997.5341464601
852,257814.11993689087
854,229635.74166079867
856,202883.51438950063
858,177548.2583061767
860,153963.78261275878
862,132580.8515415665
864,113288.53811543316
866,96239.40874515912
868,81413.00428997858
870,68826.20859127876
872,58133.754868965356
874,49160.33286656182
876,41666.7751322839
878,35497.06635140222
880,30295.018445045593
882,25695.68578759554
884,21591.37521759164
886,17852.922836174053
888,14389.809163301048
890,11160.697668091325
892,8122.388938503005
894,5540.658797514908
896,3560.8201047046186
898,2067.8082667675035
900,1036.1379326991748
902,389.7262820249188
904,91.05201843704549
906,33.85408597934234
908,10.175341117526877
910,0.4798427012002451
912,-3.482973111878331
914,2.393407046365594
916,-5.54246237681494
918,-0.29287613119402345
920,-2.3379566926154904
922,4.289920058427215
924,0.9442159283387628
926,-2.7336637591896857
928,1.0006701908683229
930,-1.3057717257606596
932,1.5404292547943992
934,4.001179039549514
936,-1.414773894536123
938,3.248233771030033
940,0.4896997775772239
942,3.269850699677664
944,0.8757233738836303
946,1.835094323646329
948,-1.5911823412967454
950,0.22756291881490442
952,1.4645588048001232
954,3.043621082643513
956,0.027056986644400358
958,-0.10659459427895207
960,-0.7023202398106899
962,-2.0064684457895754
964,-3.0020412361544704
966,-2.2327748367148637
968,-2.2451702637504916
970,3.087313082970052
972,-1.474238603491238
974,-1.3750943045639343
976,0.09099228775895851
978,-4.359327552662422
980,0.17173412192045567
982,0.5883557203648353
984,-0.6237451035931326
986,0.24693956783995888
988,-1.1733774690472267
990,1.089032408027303
992,0.5823660453244227
994,0.22070109661222787
996,-2.4283186811864717
998,-1.410528741235163
