wave,flux
336,6607.044854938961
338,9659.609718121374
340,12798.71653695341
342,16032.586500018884
344,20054.90317442218
346,25081.976505962954
348,31148.211810108172
350,38506.147773185636
352,47204.87854741779
354,57417.03076603765
356,68843.68479215691
358,80553.4099370142
360,92063.58138311833
362,103665.2384221991
364,116284.8257054532
366,132881.1435996499
368,156274.34975691306
370,190226.85897691996
372,247373.81413494793
374,355559.77857264655
376,547156.391104385
378,831688.9052437304
380,1177386.2292802576
382,1531055.1580843867
384,1858844.8808308567
386,2159470.433381084
388,2433850.9873531424
390,2664678.1661159457
392,2828567.3419143013
394,2926414.0051703723
396,3000840.5480477326
398,3111630.9347370155
400,3301353.2602672447
402,3569594.4135741885
404,3882761.272420478
406,4203681.90122
408,4506749.952856187
410,4778959.19298483
412,5008621.1438911725
414,5189883.6691416865
416,5324736.25977841
418,5423197.229214505
420,5496559.516804399
422,5555232.835947082
424,5611225.905694439
426,5678246.54065129
428,5759895.187492605
430,5852400.227784774
432,5937030.454639188
434,5995436.866189
436,6028418.047051725
438,6040465.560542278
440,6041754.069931362
442,6040985.964999618
444,6041406.0963485185
446,6041157.177573583
448,6041383.480661173
450,6041241.737977566
452,6041925.051962165
454,6041521.231731883
456,6041497.3054453945
458,6041405.600630733
460,6041935.838425861
462,6041250.42679866
464,6041689.025617993
466,6041485.498919064
468,6040779.535916463
470,6041245.613050979
472,6041223.546319225
474,6041224.131794062
476,6041354.995923395
478,6041499.571970623
480,6041292.011189103
482,6041484.39244531
484,6041382.745510449
486,6041419.845279844
488,6041678.182523961
490,6041317.77148818
492,6041526.0550963385
494,6041198.044348995
496,6041557.4272850435
498,6041399.676750922
500,6041154.227751238
502,6041559.570587268
504,6041017.702308261
506,6041784.49048293
508,6041384.469454691
510,6041610.7083913945
512,6041623.73452424
514,6041471.254918442
516,6041422.120609911
518,6041530.536792252
520,6040976.516650426
522,6041306.646883836
524,6041272.861342487
526,6041410.185232033
528,6041507.867502492
530,6041272.116562779
532,6041594.12844173
534,6041480.564587169
536,6041265.160658927
538,6041283.919834137
540,6041533.501381049
542,6041497.391467946
544,6041475.681890607
546,6041390.27931883
548,6041003.525609912
550,6041334.747484524
552,6041242.353153675
554,6041095.537349573
556,6041351.648797669
558,6041672.152773345
560,6041697.751986062
562,6041555.298621128
564,6041095.511126966
566,6041406.441626778
568,6041251.8173612375
570,6041525.864449286
572,6041522.700449712
574,6041527.347328519
576,6041621.852577286
578,6041323.963425937
580,6041389.601035859
582,6041623.478366895
584,6041429.730208676
586,6041566.971404693
588,6041454.308521333
590,6040995.839321157
592,6040919.843679247
594,6041250.980918052
596,6041380.996449545
598,6041243.128694043
600,6041459.678577893
602,6041272.015906248
604,6041268.358256785
606,6041626.0909699
608,6041506.866736966
610,6041594.542810524
612,6041543.707016272
614,6041384.162182133
616,6041545.213882566
618,6041693.442122859
620,6041448.299350456
622,6041233.123980348
624,6041495.914071258
626,6041128.277171396
628,6040456.970530872
630,6040245.738623078
632,6040652.569886926
634,6041510.381083115
636,6041841.3218192095
638,6040923.504022738
640,6040991.85859227
642,6041680.516850981
644,6041037.388874582
646,6039832.322747921
648,6039087.381670104
650,6039387.65958981
652,6040519.279300581
654,6041488.068804107
656,6041252.841625569
658,6040922.559238036
660,6041120.473602798
662,6041169.845668224
664,6040808.607263299
666,6040221.215775138
668,6040079.153060235
670,6040591.351502437
672,6041452.324980015
674,6042065.723157761
676,6042064.490046367
678,6041760.48065701
680,6041540.499368417
682,6041378.086955731
684,6041558.29808189
686,6041447.826213804
688,6040955.8142321445
690,6041315.875100325
692,6041350.307962834
694,6041850.281892658
696,6041497.3676717
698,6041199.302168762
700,6041453.646278679
702,6041828.693192877
704,6040860.42770877
706,6041675.622792104
708,6041571.681644926
710,6041346.454989626
712,6041546.234560798
714,6041858.824615336
716,6041142.5820534965
718,6041286.403162461
720,6041703.1207177285
722,6041807.585318082
724,6041329.8607438
726,6041296.890614847
728,6041527.288726995
730,6041723.792105585
732,6041192.330811199
734,6041150.1016538385
736,6041704.398114255
738,6041255.137810724
740,6041344.973276121
742,6041402.044472554
744,6041509.896928869
746,6041611.23472158
748,6041281.529689905
750,6041392.455248062
752,6040981.1977447625
754,6041295.389267499
756,6041239.4416478425
758,6041271.659960353
760,6041533.037164191
762,6033170.558480699
764,5997309.196911797
766,5919816.184365741
768,5789128.623488824
770,5591227.92157777
772,5331562.926099856
774,5030824.995786329
776,4699258.250554136
778,4346757.545140255
780,3987299.429810042
782,3631624.3336451664
784,3286378.269654552
786,2964560.482130975
788,2677357.907088312
790,2431812.978824052
792,2227005.630354121
794,2056991.6675400746
796,1912122.286436368
798,1783069.2196949078
800,1663500.214270693
802,1548744.6415391257
804,1440089.3704584274
806,1338355.7413583586
808,1246002.4351940232
810,1164641.9993123675
812,1094313.8934356393
814,1033315.1507154639
816,979276.3012057306
818,928884.3489745458
820,880151.1850921786
822,831067.2044299131
824,781134.7456778135
826,731197.4373941015
828,682133.9307999852
830,635157.065687494
832,590767.9318637582
834,549817.9262336656
836,511926.9827578021
838,476508.58827418834
840,442988.8091633684
842,410512.7161371145
844,378885.83903410326
846,347759.8550145639
848,317145.038704723
850,286997.5341464601
852,257814.11993689087
854,229635.74166079867
856,202883.51438950063
858,177548.2583061767
860,153963.78261275878
862,132580.8515415665
864,113288.53811543316
866,96239.40874515912
868,81413.00428997858
870,68826.20859127876
872,58133.754868965356
874,49160.33286656182
876,41666.7751322839
878,35497.06635140222
880,30295.018445045593
882,25695.68578759554
884,21591.37521759164
886,17852.922836174053
888,14389.809163301048
890,11160.697668091325
892,8122.388938503005
894,5540.658797514908
896,3560.8201047046186
898,2067.8082667675035
900,1036.1379326991748
902,389.7262820249188
904,91.05201843704549
906,33.85408597934234
908,10.175341117526877
910,0.4798427012002451
912,-3.482973111878331
914,2.393407046365594
916,-5.54246237681494
918,-0.29287613119402345
920,-2.3379566926154904
922,4.289920058427215
924,0.9442159283387628
926,-2.7336637591896857
928,1.0006701908683229
930,-1.3057717257606596
932,1.5404292547943992
934,4.001179039549514
936,-1.414773894536123
938,3.248233771030033
940,0.4896997775772239
942,3.269850699677664
944,0.8757233738836303
946,1.835094323646329
948,-1.5911823412967454
950,0.22756291881490442
952,1.4645588048001232
954,3.043621082643513
956,0.027056986644400358
958,-0.10659459427895207
960,-0.7023202398106899
962,-2.0064684457895754
964,-3.0020412361544704
966,-2.2327748367148637
968,-2.2451702637504916
970,3.087313082970052
972,-1.474238603491238
974,-1.3750943045639343
976,0.09099228775895851
978,-4.359327552662422
980,0.17173412192045567
982,0.5883557203648353
984,-0.6237451035931326
986,0.24693956783995888
988,-1.1733774690472267
990,1.089032408027303
992,0.5823660453244227
994,0.22070109661222787
996,-2.4283186811864717
998,-1.410528741235163
