wave,flux
336,9020.694809236218
338,11140.176141499958
340,13771.676831790532
342,16979.88981524518
344,20601.875761395986
346,24547.063564893382
348,29031.332191793255
350,34602.65627462308
352,42409.59341653307
354,55627.76286258586
356,81055.1130713576
358,127327.60126980505
360,199219.92515210542
362,293634.81344919634
364,402301.32812965754
366,517207.15473465284
368,631742.153076391
370,737877.7093445804
372,821143.6782878462
374,861479.1783251592
376,847026.2651796365
378,790136.1554963554
380,727865.9412111826
382,699231.3333701503
384,721823.4631149521
386,785057.718050427
388,865246.6869635469
390,947926.1782425165
392,1035727.1776484499
394,1138160.0718707396
396,1258166.9843259954
398,1387455.863896155
400,1517840.3867013324
402,1649232.141677035
404,1794316.7436058032
406,1974749.626006816
408,2205664.158903309
410,2482778.1164464424
412,2777056.736686094
414,3042013.777050678
416,3234880.315788732
418,3334002.0743269697
420,3347594.0484677535
422,3308431.7730300673
424,3260482.518163914
426,3242144.5523483856
428,3272986.575785778
430,3350524.6961106705
432,3459510.576714572
434,3581163.2049417756
436,3705386.44398236
438,3834336.6128305933
440,3975904.12768737
442,4138669.391836757
444,4331574.8192351805
446,4556452.695864483
448,4816228.337820886
450,5094004.835063216
452,5367360.110151887
454,5612916.324534215
456,5804439.476073944
458,5930327.9032485485
460,6001340.288705478
462,6033287.245647916
464,6041269.318504584
466,6041297.272244111
468,6041515.273611231
470,6040890.237012116
472,6041862.008319579
474,6040873.542700157
476,6041207.283683365
478,6041504.126898829
480,6041209.234990204
482,6041557.576964688
484,6041377.5381498635
486,6041424.982710127
488,6041559.899700562
490,6041143.684401149
492,6041523.069874056
494,6041323.361077414
496,6041669.234968897
498,6041462.430017846
500,6041511.729878684
502,6041219.388163073
504,6041645.815613426
506,6041260.290626297
508,6041621.649863221
510,6041135.61741569
512,6041461.5155439805
514,6041649.925085491
516,6041404.680020286
518,6041347.084355719
520,6041467.744155637
522,6041166.70738379
524,6041947.537221593
526,6041254.61437612
528,6041406.291393215
530,6041062.155440401
532,6041859.677571718
534,6041141.001456107
536,6041608.017364446
538,6041547.968783599
540,6041610.71230186
542,6041414.11057395
544,6040965.523280166
546,6041433.045073737
548,6041622.748021569
550,6041289.385189753
552,6041482.971436727
554,6041476.640334325
556,6041655.9293092
558,6041472.32566172
560,6041002.1940415315
562,6041375.866237303
564,6041408.531874227
566,6041314.889729921
568,6041248.483149811
570,6041456.114552936
572,6041433.203264186
574,6041642.489100582
576,6041649.557103031
578,6041520.267113767
580,6041805.480783371
582,6041761.599770035
584,6041191.557325915
586,6041427.812914059
588,6041696.756501322
590,6041540.894645542
592,6041288.448485258
594,6041302.734593048
596,6041411.655277274
598,6041317.238298875
600,6041334.487125283
602,6041370.118049257
604,6041382.308651393
606,6041416.774641206
608,6041470.519625139
610,6041502.382210229
612,6041481.352671034
614,6041385.4750598725
616,6041367.43185451
618,6041767.301839404
620,6042025.307371574
622,6041829.315212336
624,6041529.175550047
626,6041610.286291975
628,6041197.095076071
630,6040278.932588665
632,6040377.305882463
634,6040212.319803244
636,6039784.618251485
638,6040285.550419004
640,6040213.7491039885
642,6040234.586803408
644,6041451.553323007
646,6040436.105227717
648,6039599.082790884
650,6042906.307717827
652,6043597.106184444
654,6041278.59965979
656,6041206.690757102
658,6041513.720725419
660,6041551.328113734
662,6041377.4853369305
664,6041484.487173271
666,6041443.750070842
668,6041107.991047915
670,6041563.760999643
672,6041267.206276449
674,6041163.483843256
676,6041536.128915831
678,6041346.24345349
680,6041150.289956291
682,6041410.314774397
684,6041560.064687422
686,6041447.9187860545
688,6040955.81893969
690,6041315.875338955
692,6041350.307975556
694,6041850.281893436
696,6041497.367671758
698,6041199.302168769
700,6041453.64627868
702,6041828.693192877
704,6040860.42770877
706,6041675.622792104
708,6041571.681644926
710,6041346.454989626
712,6041546.234560798
714,6041858.824615336
716,6041142.5820534965
718,6041286.403162461
720,6041703.1207177285
722,6041807.585318082
724,6041329.8607438
726,6041296.890614847
728,6041527.288726995
730,6041723.792105585
732,6041192.330811199
734,6041150.1016538385
736,6041704.398114255
738,6041255.137810724
740,6041344.973276121
742,6041402.044472554
744,6041509.896928869
746,6041611.23472158
748,6041281.529689905
750,6041392.455248062
752,6040981.1977447625
754,6041295.389267499
756,6041239.4416478425
758,6041271.659960353
760,6041533.037164191
762,6033170.558480699
764,5997309.196911797
766,5919816.184365741
768,5789128.623488824
770,5591227.92157777
772,5331562.926099856
774,5030824.995786329
776,4699258.250554136
778,4346757.545140255
780,3987299.429810042
782,3631624.3336451664
784,3286378.269654552
786,2964560.482130975
788,2677357.907088312
790,2431812.978824052
792,2227005.630354121
794,2056991.6675400746
796,1912122.286436368
798,1783069.2196949078
800,1663500.214270693
802,1548744.6415391257
804,1440089.3704584274
806,1338355.7413583586
808,1246002.4351940232
810,1164641.9993123675
812,1094313.8934356393
814,1033315.1507154639
816,979276.3012057306
818,928884.3489745458
820,880151.1850921786
822,831067.2044299131
824,781134.7456778135
826,731197.4373941015
828,682133.9307999852
830,635157.065687494
832,590767.9318637582
834,549817.9262336656
836,511926.9827578021
838,476508.58827418834
840,442988.8091633684
842,410512.7161371145
844,378885.83903410326
846,347759.8550145639
848,317145.038704723
850,286997.5341464601
852,257814.11993689087
854,229635.74166079867
856,202883.51438950063
858,177548.2583061767
860,153963.78261275878
862,132580.8515415665
864,113288.53811543316
866,96239.40874515912
868,81413.00428997858
870,68826.20859127876
872,58133.754868965356
874,49160.33286656182
876,41666.7751322839
878,35497.06635140222
880,30295.018445045593
882,25695.68578759554
884,21591.37521759164
886,17852.922836174053
888,14389.809163301048
890,11160.697668091325
892,8122.388938503005
894,5540.658797514908
896,3560.8201047046186
898,2067.8082667675035
900,1036.1379326991748
902,389.7262820249188
904,91.05201843704549
906,33.85408597934234
908,10.175341117526877
910,0.4798427012002451
912,-3.482973111878331
914,2.393407046365594
916,-5.54246237681494
918,-0.29287613119402345
920,-2.3379566926154904
922,4.289920058427215
924,0.9442159283387628
926,-2.7336637591896857
928,1.0006701908683229
930,-1.3057717257606596
932,1.5404292547943992
934,4.001179039549514
936,-1.414773894536123
938,3.248233771030033
940,0.4896997775772239
942,3.269850699677664
944,0.8757233738836303
946,1.835094323646329
948,-1.5911823412967454
950,0.22756291881490442
952,1.4645588048001232
954,3.043621082643513
956,0.027056986644400358
958,-0.10659459427895207
960,-0.7023202398106899
962,-2.0064684457895754
964,-3.0020412361544704
966,-2.2327748367148637
968,-2.2451702637504916
970,3.087313082970052
972,-1.474238603491238
974,-1.3750943045639343
976,0.09099228775895851
978,-4.359327552662422
980,0.17173412192045567
982,0.5883557203648353
984,-0.6237451035931326
986,0.24693956783995888
988,-1.1733774690472267
990,1.089032408027303
992,0.5823660453244227
994,0.22070109661222787
996,-2.4283186811864717
998,-1.410528741235163
