wave,flux
336,197492.00823687526
338,230506.5950762892
340,254816.55613378872
342,286563.400942566
344,343034.46739471774
346,425913.8383448506
348,509496.19385541923
350,569373.2267721989
352,607040.6830439777
354,634584.5744404579
356,653082.9814483594
358,656739.0615297677
360,653128.7719737898
362,662416.6828507361
364,697882.4058414948
366,760024.0229413045
368,842036.4032020011
370,922867.6050481667
372,970963.2805858649
374,973120.8483568332
376,949809.3356004874
378,936517.1092764959
380,955727.1984159428
382,1010195.244318999
384,1094155.0776683681
386,1203457.4563195915
388,1337432.5206503875
390,1494941.309549837
392,1670241.2973509578
394,1850386.7855525399
396,2024710.294947342
398,2183997.9560790346
400,2328640.834786112
402,2456057.0333655956
404,2570398.923823887
406,2689402.907281149
408,2846123.3135207603
410,3068334.5305980598
412,3357893.597379296
414,3689591.595611905
416,4029493.7197689535
418,4356149.788701673
420,4668214.259970312
422,4973771.929611034
424,5271690.762086192
426,5543224.208353744
428,5762602.215000916
430,5912205.236007729
432,5995062.944776843
434,6030590.46829657
436,6040649.795067841
438,6041196.555168164
440,6041547.00719267
442,6041552.641656701
444,6041167.243623392
446,6041438.113427307
448,6041227.736123449
450,6041603.731962069
452,6041122.916284914
454,6041281.995690827
456,6041094.915562993
458,6041470.969590457
460,6041100.205453722
462,6041240.754847326
464,6041084.467512666
466,6041518.831925256
468,6041171.248813966
470,6041481.543839377
472,6041372.859431429
474,6041710.1527259
476,6041175.026522043
478,6041729.280915698
480,6041409.262322
482,6041062.669501588
484,6041467.079780267
486,6041774.133033437
488,6041159.102251718
490,6041373.980743876
492,6041591.925361605
494,6041260.335335099
496,6040976.48504266
498,6041312.129799202
500,6041155.466861503
502,6041420.287423321
504,6041134.672887545
506,6041576.354620758
508,6041551.555281481
510,6041695.472226519
512,6041175.770548795
514,6041326.7015766995
516,6041570.62963796
518,6041689.621421555
520,6041613.076708886
522,6041217.190689459
524,6041251.880557122
526,6041522.097471622
528,6041239.3365989765
530,6040766.640043069
532,6041280.538924351
534,6040996.612661359
536,6041540.151791434
538,6041271.356824904
540,6041442.575356546
542,6041388.726673804
544,6041103.6956914505
546,6041258.291762527
548,6041730.455548925
550,6041421.515134706
552,6041259.179769858
554,6041222.14151776
556,6041536.953168818
558,6041470.250184313
560,6041143.962926993
562,6041682.035735565
564,6041599.81984516
566,6041469.905385563
568,6041226.555501763
570,6041670.236287475
572,6041343.516948745
574,6041348.23994098
576,6041467.7739421
578,6041308.1414384805
580,6041204.54233975
582,6041263.113168001
584,6041368.262728663
586,6041487.918809892
588,6041219.299763724
590,6041158.582913797
592,6041107.5826851195
594,6041040.262375134
596,6041168.392225486
598,6041360.353555715
600,6041378.428870805
602,6041551.037276622
604,6041317.487468195
606,6040776.325115329
608,6040974.721427141
610,6041506.716085761
612,6041465.47282852
614,6041191.5419031335
616,6041510.202719947
618,6041725.826698563
620,6040799.809810334
622,6040452.763340038
624,6042357.549217025
626,6042320.702129495
628,6041597.056649409
630,6042015.641028493
632,6042069.734834912
634,6041396.038511887
636,6040801.613377787
638,6041236.741897783
640,6041704.303076075
642,6040775.194924414
644,6038350.177576779
646,6037958.426956656
648,6039494.573944168
650,6040597.287082323
652,6042034.563419632
654,6043021.395852618
656,6041864.56061738
658,6041498.17987537
660,6041550.881301468
662,6041377.494651788
664,6041484.488979556
666,6041443.750196467
668,6041107.991053735
670,6041563.760999789
672,6041267.206276446
674,6041163.483843256
676,6041536.128915831
678,6041346.24345349
680,6041150.289956291
682,6041410.314774397
684,6041560.064687422
686,6041447.9187860545
688,6040955.81893969
690,6041315.875338955
692,6041350.307975556
694,6041850.281893436
696,6041497.367671758
698,6041199.302168769
700,6041453.64627868
702,6041828.693192877
704,6040860.42770877
706,6041675.622792104
708,6041571.681644926
710,6041346.454989626
712,6041546.234560798
714,6041858.824615336
716,6041142.5820534965
718,6041286.403162461
720,6041703.1207177285
722,6041807.585318082
724,6041329.8607438
726,6041296.890614847
728,6041527.288726995
730,6041723.792105585
732,6041192.330811199
734,6041150.1016538385
736,6041704.398114255
738,6041255.137810724
740,6041344.973276121
742,6041402.044472554
744,6041509.896928869
746,6041611.23472158
748,6041281.529689905
750,6041392.455248062
752,6040981.1977447625
754,6041295.389267499
756,6041239.4416478425
758,6041271.659960353
760,6041533.037164191
762,6033170.558480699
764,5997309.196911797
766,5919816.184365741
768,5789128.623488824
770,5591227.92157777
772,5331562.926099856
774,5030824.995786329
776,4699258.250554136
778,4346757.545140255
780,3987299.429810042
782,3631624.3336451664
784,3286378.269654552
786,2964560.482130975
788,2677357.907088312
790,2431812.978824052
792,2227005.630354121
794,2056991.6675400746
796,1912122.286436368
798,1783069.2196949078
800,1663500.214270693
802,1548744.6415391257
804,1440089.3704584274
806,1338355.7413583586
808,1246002.4351940232
810,1164641.9993123675
812,1094313.8934356393
814,1033315.1507154639
816,979276.3012057306
818,928884.3489745458
820,880151.1850921786
822,831067.2044299131
824,781134.7456778135
826,731197.4373941015
828,682133.9307999852
830,635157.065687494
832,590767.9318637582
834,549817.9262336656
836,511926.9827578021
838,476508.58827418834
840,442988.8091633684
842,410512.7161371145
844,378885.83903410326
846,347759.8550145639
848,317145.038704723
850,286997.5341464601
852,257814.11993689087
854,229635.74166079867
856,202883.51438950063
858,177548.2583061767
860,153963.78261275878
862,132580.8515415665
864,113288.53811543316
866,96239.40874515912
868,81413.00428997858
870,68826.20859127876
872,58133.754868965356
874,49160.33286656182
876,41666.7751322839
878,35497.06635140222
880,30295.018445045593
882,25695.68578759554
884,21591.37521759164
886,17852.922836174053
888,14389.809163301048
890,11160.697668091325
892,8122.388938503005
894,5540.658797514908
896,3560.8201047046186
898,2067.8082667675035
900,1036.1379326991748
902,389.7262820249188
904,91.05201843704549
906,33.85408597934234
908,10.175341117526877
910,0.4798427012002451
912,-3.482973111878331
914,2.393407046365594
916,-5.54246237681494
918,-0.29287613119402345
920,-2.3379566926154904
922,4.289920058427215
924,0.9442159283387628
926,-2.7336637591896857
928,1.0006701908683229
930,-1.3057717257606596
932,1.5404292547943992
934,4.001179039549514
936,-1.414773894536123
938,3.248233771030033
940,0.4896997775772239
942,3.269850699677664
944,0.8757233738836303
946,1.835094323646329
948,-1.5911823412967454
950,0.22756291881490442
952,1.4645588048001232
954,3.043621082643513
956,0.027056986644400358
958,-0.10659459427895207
960,-0.7023202398106899
962,-2.0064684457895754
964,-3.0020412361544704
966,-2.2327748367148637
968,-2.2451702637504916
970,3.087313082970052
972,-1.474238603491238
974,-1.3750943045639343
976,0.09099228775895851
978,-4.359327552662422
980,0.17173412192045567
982,0.5883557203648353
984,-0.6237451035931326
986,0.24693956783995888
988,-1.1733774690472267
990,1.089032408027303
992,0.5823660453244227
994,0.22070109661222787
996,-2.4283186811864717
998,-1.410528741235163
