wave,flux
336,11614.362533830605
338,14667.08236721182
340,18168.111682089755
342,22224.932769716506
344,27284.816119179704
346,33080.80888848081
348,39285.36271006609
350,46628.61472974429
352,56723.339867166775
354,72514.75552147647
356,100286.34710757775
358,147462.3491365413
360,217714.38106320018
362,308302.426054157
364,412681.2496581076
366,525014.2630200065
368,641111.6193065826
370,759007.7147123163
372,876880.729459736
374,989411.8370440124
376,1089182.2630222396
378,1176870.4926371109
380,1266316.2122601576
382,1371502.0900450693
384,1491369.4429376493
386,1611924.9528667422
388,1721302.8905337725
390,1819161.851380323
392,1915004.9474310074
394,2024455.9610617505
396,2167251.348392977
398,2355186.874770744
400,2580704.6828121897
402,2811592.303735648
404,3014470.80608127
406,3182413.778265894
408,3344163.250514063
410,3541289.3722935934
412,3795463.08791845
414,4095408.9711384475
416,4409835.975047673
418,4708153.327422286
420,4976754.591149313
422,5213890.367958702
424,5419835.167567731
426,5594224.869020623
428,5736909.08385853
430,5846691.301069321
432,5927708.255291048
434,5983027.363634699
436,6016183.911061505
438,6033068.218980496
440,6040094.35026821
442,6041368.197647509
444,6041704.714300486
446,6041097.233747899
448,6041431.780035356
450,6041508.500381649
452,6041333.43612406
454,6041444.931781539
456,6041133.540229541
458,6041498.340553337
460,6041549.512498239
462,6041232.4738718085
464,6041311.434270856
466,6041077.927066417
468,6041615.590393904
470,6041821.07082525
472,6041304.802509744
474,6041697.032035181
476,6041558.703143574
478,6041641.37282301
480,6041522.084806969
482,6041264.376775134
484,6041068.576414254
486,6041302.726355883
488,6041815.121366081
490,6041179.858171839
492,6041707.165208647
494,6041519.173874028
496,6041370.138811343
498,6041408.472523373
500,6041517.9396170415
502,6041410.672256549
504,6041722.5308813425
506,6041483.02500652
508,6041182.711562146
510,6041673.50175983
512,6041436.770805518
514,6041513.001781044
516,6041790.430901284
518,6041555.646879513
520,6041192.291830157
522,6041371.054221522
524,6040980.840120915
526,6041392.158283483
528,6041450.49712863
530,6041193.433329349
532,6041425.409792662
534,6041532.428591955
536,6041357.215865876
538,6040916.268025676
540,6041362.158634915
542,6041277.672047902
544,6041289.563297039
546,6041794.144844285
548,6041628.504834585
550,6041582.404828258
552,6041594.464151703
554,6041512.927811523
556,6041404.553701985
558,6041350.087326593
560,6041311.533282984
562,6041564.118288554
564,6041579.945814213
566,6041731.860062671
568,6041672.655935872
570,6041123.077466503
572,6041308.211956727
574,6041109.319444808
576,6041206.755170481
578,6041527.800377096
580,6041225.584384912
582,6041045.2227001805
584,6041574.410018214
586,6041598.019212694
588,6041237.815616237
590,6041199.1031351695
592,6041402.423667262
594,6041710.536279084
596,6041779.980185438
598,6041382.976628441
600,6041346.516546256
602,6041262.08399723
604,6041323.114030701
606,6041668.804660843
608,6041821.8664080445
610,6041714.610890243
612,6041655.0267337235
614,6041688.873757155
616,6041566.362530532
618,6041296.797864005
620,6041788.487297373
622,6041953.433873268
624,6040402.899104791
626,6039940.314632914
628,6040625.538672945
630,6041117.073173055
632,6040769.2275884
634,6040379.7402370125
636,6040539.128055284
638,6041022.436253804
640,6040971.188281635
642,6040950.533794587
644,6041805.0163519
646,6041826.777847837
648,6041410.495375379
650,6042029.499909405
652,6042417.591758119
654,6041901.531245336
656,6041010.987052682
658,6040985.015384065
660,6041832.96963889
662,6041379.328627808
664,6041484.844613546
666,6041443.774930472
668,6041107.9921997925
670,6041563.761028599
672,6041267.206275639
674,6041163.483843092
676,6041536.1289158175
678,6041346.243453489
680,6041150.289956291
682,6041410.314774397
684,6041560.064687422
686,6041447.9187860545
688,6040955.81893969
690,6041315.875338955
692,6041350.307975556
694,6041850.281893436
696,6041497.367671758
698,6041199.302168769
700,6041453.64627868
702,6041828.693192877
704,6040860.42770877
706,6041675.622792104
708,6041571.681644926
710,6041346.454989626
712,6041546.234560798
714,6041858.824615336
716,6041142.5820534965
718,6041286.403162461
720,6041703.1207177285
722,6041807.585318082
724,6041329.8607438
726,6041296.890614847
728,6041527.288726995
730,6041723.792105585
732,6041192.330811199
734,6041150.1016538385
736,6041704.398114255
738,6041255.137810724
740,6041344.973276121
742,6041402.044472554
744,6041509.896928869
746,6041611.23472158
748,6041281.529689905
750,6041392.455248062
752,6040981.1977447625
754,6041295.389267499
756,6041239.4416478425
758,6041271.659960353
760,6041533.037164191
762,6033170.558480699
764,5997309.196911797
766,5919816.184365741
768,5789128.623488824
770,5591227.92157777
772,5331562.926099856
774,5030824.995786329
776,4699258.250554136
778,4346757.545140255
780,3987299.429810042
782,3631624.3336451664
784,3286378.269654552
786,2964560.482130975
788,2677357.907088312
790,2431812.978824052
792,2227005.630354121
794,2056991.6675400746
796,1912122.286436368
798,1783069.2196949078
800,1663500.214270693
802,1548744.6415391257
804,1440089.3704584274
806,1338355.7413583586
808,1246002.4351940232
810,1164641.9993123675
812,1094313.8934356393
814,1033315.1507154639
816,979276.3012057306
818,928884.3489745458
820,880151.1850921786
822,831067.2044299131
824,781134.7456778135
826,731197.4373941015
828,682133.9307999852
830,635157.065687494
832,590767.9318637582
834,549817.9262336656
836,511926.9827578021
838,476508.58827418834
840,442988.8091633684
842,410512.7161371145
844,378885.83903410326
846,347759.8550145639
848,317145.038704723
850,286997.5341464601
852,257814.11993689087
854,229635.74166079867
856,202883.51438950063
858,177548.2583061767
860,153963.78261275878
862,132580.8515415665
864,113288.53811543316
866,96239.40874515912
868,81413.00428997858
870,68826.20859127876
872,58133.754868965356
874,49160.33286656182
876,41666.7751322839
878,35497.06635140222
880,30295.018445045593
882,25695.68578759554
884,21591.37521759164
886,17852.922836174053
888,14389.809163301048
890,11160.697668091325
892,8122.388938503005
894,5540.658797514908
896,3560.8201047046186
898,2067.8082667675035
900,1036.1379326991748
902,389.7262820249188
904,91.05201843704549
906,33.85408597934234
908,10.175341117526877
910,0.4798427012002451
912,-3.482973111878331
914,2.393407046365594
916,-5.54246237681494
918,-0.29287613119402345
920,-2.3379566926154904
922,4.289920058427215
924,0.9442159283387628
926,-2.7336637591896857
928,1.0006701908683229
930,-1.3057717257606596
932,1.5404292547943992
934,4.001179039549514
936,-1.414773894536123
938,3.248233771030033
940,0.4896997775772239
942,3.269850699677664
944,0.8757233738836303
946,1.835094323646329
948,-1.5911823412967454
950,0.22756291881490442
952,1.4645588048001232
954,3.043621082643513
956,0.027056986644400358
958,-0.10659459427895207
960,-0.7023202398106899
962,-2.0064684457895754
964,-3.0020412361544704
966,-2.2327748367148637
968,-2.2451702637504916
970,3.087313082970052
972,-1.474238603491238
974,-1.3750943045639343
976,0.09099228775895851
978,-4.359327552662422
980,0.17173412192045567
982,0.5883557203648353
984,-0.6237451035931326
986,0.24693956783995888
988,-1.1733774690472267
990,1.089032408027303
992,0.5823660453244227
994,0.22070109661222787
996,-2.4283186811864717
998,-1.410528741235163
