wave,flux
336,3.2881787102002735
338,0.757888635900322
340,80.86856854245156
342,487.2040155576674
344,1347.8943262428304
346,2581.9461620300394
348,4146.431954144477
350,6154.03797460622
352,8623.306306718621
354,11530.452701666254
356,14902.57405971605
358,18647.498671458234
360,22783.214612240412
362,27762.057693693703
364,33851.81300283572
366,41062.48465625281
368,49496.82355803531
370,59189.13118689812
372,69920.09600323632
374,81307.22845229038
376,93443.90782108302
378,106764.07010173424
380,121442.6637853849
382,137480.92876939278
384,155710.15843359972
386,177507.84486092083
388,205939.5738401131
390,247677.59733102893
392,315651.8857171953
394,424080.71455344226
396,581779.5532073276
398,785376.9307683826
400,1021027.0277944154
402,1270887.964682022
404,1522945.5994233896
406,1777051.7112644732
408,2041198.6683407607
410,2321714.8014829303
412,2615142.131467954
414,2909305.0787181137
416,3190220.8058592584
418,3449136.246108638
420,3685923.310523856
422,3902873.5258327974
424,4104243.710310258
426,4299769.152732771
428,4500581.571496526
430,4720291.629788259
432,4967365.74264603
434,5233083.220781045
436,5491464.408910255
438,5715319.769063985
440,5878742.522258551
442,5976025.525286475
444,6023923.644807184
446,6040115.255972671
448,6041227.513039559
450,6041360.060959917
452,6041582.779124496
454,6041355.828803146
456,6041403.9501412455
458,6041350.838130526
460,6041332.619580902
462,6041198.200035815
464,6041356.807462005
466,6041582.226890631
468,6041251.857282989
470,6041657.03587759
472,6041139.254778864
474,6041292.440758178
476,6041352.125147999
478,6041469.176343393
480,6041304.568547035
482,6041297.759244521
484,6041285.881967503
486,6041303.462584749
488,6041176.087588808
490,6041621.779138551
492,6041179.0719696265
494,6041727.788196756
496,6041604.701017301
498,6041187.231554216
500,6041374.288355865
502,6041619.770526266
504,6041479.797702299
506,6041375.339829709
508,6041146.727037772
510,6041256.486052868
512,6041365.93407745
514,6041985.989883808
516,6041208.016845369
518,6041659.7741277795
520,6041443.964373284
522,6041475.2711207
524,6041282.933910252
526,6041276.965015458
528,6041070.323243823
530,6041637.681956149
532,6041158.514613174
534,6041218.791051357
536,6041292.220358984
538,6041435.19621162
540,6041619.174253131
542,6041198.329042714
544,6041200.3483261075
546,6041527.796626834
548,6041412.104991482
550,6041255.823494265
552,6041728.527452201
554,6041496.1391770905
556,6041313.40112693
558,6041662.5339977695
560,6041905.469986866
562,6041331.634416361
564,6041560.23589027
566,6041738.962480925
568,6041895.09050827
570,6041519.328678322
572,6041529.551857071
574,6041413.304376462
576,6041540.055780018
578,6041538.299670275
580,6041248.077455717
582,6041142.267388271
584,6041464.744873565
586,6041681.180933587
588,6041135.810277554
590,6041169.148141305
592,6041513.022606208
594,6041619.394040733
596,6041594.191052974
598,6041607.560968795
600,6041474.351220171
602,6041552.309589906
604,6041415.307165267
606,6041205.739366827
608,6041488.188752911
610,6041063.943909853
612,6041358.856532954
614,6041824.359940235
616,6041143.485318775
618,6041378.586020997
620,6041212.696468526
622,6040676.586713706
624,6041182.02641108
626,6041477.621137242
628,6041449.314609872
630,6041432.874435719
632,6041339.583957753
634,6041175.578304011
636,6040984.432236676
638,6040809.724388927
640,6040695.033393946
642,6040683.937884915
644,6040820.016495009
646,6041146.847857415
648,6041641.60278187
650,6041399.990775899
652,6041705.721386831
654,6041397.689666061
656,6041151.216911327
658,6041511.431222146
660,6041551.262288624
662,6041377.486709211
664,6041484.487439378
666,6041443.750089349
668,6041107.991048771
670,6041563.760999665
672,6041267.2062764475
674,6041163.483843256
676,6041536.128915831
678,6041346.24345349
680,6041150.289956291
682,6041410.314774397
684,6041560.064687422
686,6041447.9187860545
688,6040955.81893969
690,6041315.875338955
692,6041350.307975556
694,6041850.281893436
696,6041497.367671758
698,6041199.302168769
700,6041453.64627868
702,6041828.693192877
704,6040860.42770877
706,6041675.622792104
708,6041571.681644926
710,6041346.454989626
712,6041546.234560798
714,6041858.824615336
716,6041142.5820534965
718,6041286.403162461
720,6041703.1207177285
722,6041807.585318082
724,6041329.8607438
726,6041296.890614847
728,6041527.288726995
730,6041723.792105585
732,6041192.330811199
734,6041150.1016538385
736,6041704.398114255
738,6041255.137810724
740,6041344.973276121
742,6041402.044472554
744,6041509.896928869
746,6041611.23472158
748,6041281.529689905
750,6041392.455248062
752,6040981.1977447625
754,6041295.389267499
756,6041239.4416478425
758,6041271.659960353
760,6041533.037164191
762,6033170.558480699
764,5997309.196911797
766,5919816.184365741
768,5789128.623488824
770,5591227.92157777
772,5331562.926099856
774,5030824.995786329
776,4699258.250554136
778,4346757.545140255
780,3987299.429810042
782,3631624.3336451664
784,3286378.269654552
786,2964560.482130975
788,2677357.907088312
790,2431812.978824052
792,2227005.630354121
794,2056991.6675400746
796,1912122.286436368
798,1783069.2196949078
800,1663500.214270693
802,1548744.6415391257
804,1440089.3704584274
806,1338355.7413583586
808,1246002.4351940232
810,1164641.9993123675
812,1094313.8934356393
814,1033315.1507154639
816,979276.3012057306
818,928884.3489745458
820,880151.1850921786
822,831067.2044299131
824,781134.7456778135
826,731197.4373941015
828,682133.9307999852
830,635157.065687494
832,590767.9318637582
834,549817.9262336656
836,511926.9827578021
838,476508.58827418834
840,442988.8091633684
842,410512.7161371145
844,378885.83903410326
846,347759.8550145639
848,317145.038704723
850,286997.5341464601
852,257814.11993689087
854,229635.74166079867
856,202883.51438950063
858,177548.2583061767
860,153963.78261275878
862,132580.8515415665
864,113288.53811543316
866,96239.40874515912
868,81413.00428997858
870,68826.20859127876
872,58133.754868965356
874,49160.33286656182
876,41666.7751322839
878,35497.06635140222
880,30295.018445045593
882,25695.68578759554
884,21591.37521759164
886,17852.922836174053
888,14389.809163301048
890,11160.697668091325
892,8122.388938503005
894,5540.658797514908
896,3560.8201047046186
898,2067.8082667675035
900,1036.1379326991748
902,389.7262820249188
904,91.05201843704549
906,33.85408597934234
908,10.175341117526877
910,0.4798427012002451
912,-3.482973111878331
914,2.393407046365594
916,-5.54246237681494
918,-0.29287613119402345
920,-2.3379566926154904
922,4.289920058427215
924,0.9442159283387628
926,-2.7336637591896857
928,1.0006701908683229
930,-1.3057717257606596
932,1.5404292547943992
934,4.001179039549514
936,-1.414773894536123
938,3.248233771030033
940,0.4896997775772239
942,3.269850699677664
944,0.8757233738836303
946,1.835094323646329
948,-1.5911823412967454
950,0.22756291881490442
952,1.4645588048001232
954,3.043621082643513
956,0.027056986644400358
958,-0.10659459427895207
960,-0.7023202398106899
962,-2.0064684457895754
964,-3.0020412361544704
966,-2.2327748367148637
968,-2.2451702637504916
970,3.087313082970052
972,-1.474238603491238
974,-1.3750943045639343
976,0.09099228775895851
978,-4.359327552662422
980,0.17173412192045567
982,0.5883557203648353
984,-0.6237451035931326
986,0.24693956783995888
988,-1.1733774690472267
990,1.089032408027303
992,0.5823660453244227
994,0.22070109661222787
996,-2.4283186811864717
998,-1.410528741235163
