wave,flux
336,-0.27787309132778537
338,165.94095435677883
340,1026.9818137739342
342,2252.4341462057337
344,4131.501229699821
346,8439.60221443273
348,16838.416413322306
350,28395.857799179423
352,37904.72388638972
354,44090.90047741636
356,50660.81541128526
358,61969.00729776711
360,79416.3110724861
362,99574.40893222047
364,121973.98601735075
366,149905.70197988066
368,184681.34959249673
370,223740.97719545217
372,262441.9092907059
374,298922.8922159865
376,336348.325277285
378,379882.67642942065
380,428097.90517459495
382,476486.29717016773
384,531241.7372781675
386,608989.3168517735
388,734635.8214059499
390,933405.5523799858
392,1220652.5437528233
394,1588949.7862621727
396,2021818.7046629465
398,2535060.2152165817
400,3205641.861731322
402,4031757.045520435
404,4881202.504724455
406,5542027.710650251
408,5900072.916635752
410,6028839.385662533
412,6041235.520448987
414,6041313.609960016
416,6041123.32027217
418,6040892.11039288
420,6041144.199022005
422,6041493.504025937
424,6041199.653709744
426,6040999.451887773
428,6041256.483351905
430,6041326.385139183
432,6041777.428704001
434,6041364.6387755545
436,6041552.52510541
438,6041460.615770597
440,6041177.300687278
442,6040940.53006905
444,6041401.543985347
446,6041463.694601368
448,6041310.96783783
450,6041449.944530096
452,6041241.066643165
454,6041431.599388522
456,6041532.598604883
458,6041447.8598991055
460,6041457.891030149
462,6041109.213654848
464,6041691.066524624
466,6041200.851165753
468,6041331.87510782
470,6040964.991439874
472,6041747.824067302
474,6041033.163839406
476,6041707.595498311
478,6041490.323004716
480,6041339.163433889
482,6041555.802371974
484,6041467.145274306
486,6041177.901273745
488,6041431.630819999
490,6041694.193917625
492,6041388.945966515
494,6041149.0433961935
496,6041565.212053108
498,6040925.135153919
500,6041456.913297961
502,6041279.08080126
504,6041073.061361409
506,6041719.147366806
508,6041232.370937911
510,6041632.959306108
512,6041479.536704333
514,6041348.03763265
516,6041478.904168211
518,6041279.643181087
520,6041663.028209469
522,6041435.662867338
524,6041234.265754261
526,6041283.393739935
528,6041683.179255134
530,6041666.438918656
532,6041420.276006871
534,6041574.566720097
536,6041535.850622665
538,6041206.327929973
540,6041412.694005311
542,6041658.667032261
544,6041280.171965234
546,6041205.641047065
548,6041426.437701788
550,6041642.550684866
552,6041461.437946699
554,6041673.810666839
556,6041673.665938555
558,6041626.136613136
560,6041793.235958565
562,6041221.620440084
564,6041563.133407664
566,6040966.759232144
568,6041510.267450725
570,6041304.196573961
572,6041472.32126526
574,6041671.821195216
576,6041495.223703907
578,6041177.8298061285
580,6041212.543144075
582,6041366.457611668
584,6041433.508121223
586,6041632.29084929
588,6041394.171458362
590,6041745.3748413315
592,6041635.810331143
594,6041349.206720896
596,6041402.9724764805
598,6041272.851767839
600,6041513.562760554
602,6041163.467508126
604,6041172.7152891895
606,6041654.366998811
608,6041284.911701652
610,6041375.415789173
612,6041396.065025679
614,6041443.435293961
616,6041826.153145035
618,6041080.590588386
620,6040461.144252734
622,6040209.457223177
624,6039698.873172343
626,6040497.101387041
628,6041024.224095888
630,6040642.871890092
632,6041410.096693631
634,6040835.734292972
636,6039764.695042495
638,6041170.894780875
640,6040486.596909966
642,6038994.645230764
644,6040956.6593568325
646,6042562.127368568
648,6042643.195483738
650,6042440.092899037
652,6040945.780946364
654,6039216.507682626
656,6039691.966962532
658,6041093.991598217
660,6041975.366975825
662,6042082.605575267
664,6042061.907752414
666,6042840.690105015
668,6044917.42828432
670,6044425.663372163
672,6041169.390500259
674,6039345.166427057
676,6041251.035512876
678,6041207.852473248
680,6041141.6034328155
682,6041409.810070856
684,6041560.0370215075
686,6041447.917336327
688,6040955.818865965
690,6041315.8753352165
692,6041350.3079753565
694,6041850.281893424
696,6041497.367671759
698,6041199.302168768
700,6041453.64627868
702,6041828.693192877
704,6040860.42770877
706,6041675.622792104
708,6041571.681644926
710,6041346.454989626
712,6041546.234560798
714,6041858.824615336
716,6041142.5820534965
718,6041286.403162461
720,6041703.1207177285
722,6041807.585318082
724,6041329.8607438
726,6041296.890614847
728,6041527.288726995
730,6041723.792105585
732,6041192.330811199
734,6041150.1016538385
736,6041704.398114255
738,6041255.137810724
740,6041344.973276121
742,6041402.044472554
744,6041509.896928869
746,6041611.23472158
748,6041281.529689905
750,6041392.455248062
752,6040981.1977447625
754,6041295.389267499
756,6041239.4416478425
758,6041271.659960353
760,6041533.037164191
762,6033170.558480699
764,5997309.196911797
766,5919816.184365741
768,5789128.623488824
770,5591227.92157777
772,5331562.926099856
774,5030824.995786329
776,4699258.250554136
778,4346757.545140255
780,3987299.429810042
782,3631624.3336451664
784,3286378.269654552
786,2964560.482130975
788,2677357.907088312
790,2431812.978824052
792,2227005.630354121
794,2056991.6675400746
796,1912122.286436368
798,1783069.2196949078
800,1663500.214270693
802,1548744.6415391257
804,1440089.3704584274
806,1338355.7413583586
808,1246002.4351940232
810,1164641.9993123675
812,1094313.8934356393
814,1033315.1507154639
816,979276.3012057306
818,928884.3489745458
820,880151.1850921786
822,831067.2044299131
824,781134.7456778135
826,731197.4373941015
828,682133.9307999852
830,635157.065687494
832,590767.9318637582
834,549817.9262336656
836,511926.9827578021
838,476508.58827418834
840,442988.8091633684
842,410512.7161371145
844,378885.83903410326
846,347759.8550145639
848,317145.038704723
850,286997.5341464601
852,257814.11993689087
854,229635.74166079867
856,202883.51438950063
858,177548.2583061767
860,153963.78261275878
862,132580.8515415665
864,113288.53811543316
866,96239.40874515912
868,81413.00428997858
870,68826.20859127876
872,58133.754868965356
874,49160.33286656182
876,41666.7751322839
878,35497.06635140222
880,30295.018445045593
882,25695.68578759554
884,21591.37521759164
886,17852.922836174053
888,14389.809163301048
890,11160.697668091325
892,8122.388938503005
894,5540.658797514908
896,3560.8201047046186
898,2067.8082667675035
900,1036.1379326991748
902,389.7262820249188
904,91.05201843704549
906,33.85408597934234
908,10.175341117526877
910,0.4798427012002451
912,-3.482973111878331
914,2.393407046365594
916,-5.54246237681494
918,-0.29287613119402345
920,-2.3379566926154904
922,4.289920058427215
924,0.9442159283387628
926,-2.7336637591896857
928,1.0006701908683229
930,-1.3057717257606596
932,1.5404292547943992
934,4.001179039549514
936,-1.414773894536123
938,3.248233771030033
940,0.4896997775772239
942,3.269850699677664
944,0.8757233738836303
946,1.835094323646329
948,-1.5911823412967454
950,0.22756291881490442
952,1.4645588048001232
954,3.043621082643513
956,0.027056986644400358
958,-0.10659459427895207
960,-0.7023202398106899
962,-2.0064684457895754
964,-3.0020412361544704
966,-2.2327748367148637
968,-2.2451702637504916
970,3.087313082970052
972,-1.474238603491238
974,-1.3750943045639343
976,0.09099228775895851
978,-4.359327552662422
980,0.17173412192045567
982,0.5883557203648353
984,-0.6237451035931326
986,0.24693956783995888
988,-1.1733774690472267
990,1.089032408027303
992,0.5823660453244227
994,0.22070109661222787
996,-2.4283186811864717
998,-1.410528741235163
