wave,flux
336,177.20177430060363
338,322.89903140839374
340,585.3096156812364
342,1043.4161934800677
344,1709.5887537186552
346,2566.1316979039357
348,3593.0203953662717
350,4805.537380470007
352,6256.457844670052
354,8046.627775252008
356,10274.767502737783
358,12904.349360547345
360,16109.568872713551
362,20034.69056009579
364,24708.934004006613
366,30170.85417496628
368,36603.85554460834
370,44085.42223542945
372,52722.927477608646
374,62872.49228254296
376,75339.44804463339
378,91098.34685218101
380,111011.62895692715
382,135956.30745222064
384,166667.27753403076
386,204061.79913849564
388,249172.88457283817
390,304729.18615433906
392,374847.4890875982
394,462907.4163206752
396,568660.6281010166
398,687475.9462262895
400,812330.881812076
402,937267.8360872369
404,1059627.9414990516
406,1181366.0946390592
408,1307220.1898127708
410,1440849.493290781
412,1585195.4857954397
414,1741139.3275892304
416,1909644.8319519819
418,2092709.5431089494
420,2292094.6753868405
422,2511082.948624945
424,2750665.4447058323
426,3013295.9431210845
428,3297963.213492074
430,3602364.4404503037
432,3919441.9386737673
434,4243958.927128287
436,4572137.309332705
438,4902102.310936274
440,5220139.899857438
442,5504541.080808328
444,5736035.674384259
446,5894588.33590969
448,5985460.66107006
450,6028655.231591055
452,6040484.477696796
454,6041467.131896606
456,6041567.608678752
458,6041419.688472171
460,6041113.9930202225
462,6041546.615044453
464,6041291.585474386
466,6041233.602946543
468,6041893.51382946
470,6041454.61838196
472,6041509.825685511
474,6041382.833811896
476,6041173.606454617
478,6041508.700446844
480,6041465.245163343
482,6041649.3319685925
484,6041129.323093081
486,6041422.496134043
488,6041205.65056647
490,6041735.13779133
492,6041107.581557309
494,6041148.083459387
496,6041604.905735586
498,6041632.713281239
500,6041639.586729113
502,6041224.920517302
504,6041408.510856961
506,6041374.433443281
508,6041483.36061375
510,6041393.139028741
512,6041523.700223825
514,6041434.765450074
516,6041064.109876926
518,6041398.479302642
520,6041674.216503131
522,6041007.553361217
524,6041604.288165495
526,6041366.729892222
528,6041751.927447841
530,6041216.125396558
532,6041650.940265053
534,6041117.301369301
536,6041367.6247956855
538,6041883.544860155
540,6041601.948966073
542,6041184.996772067
544,6041241.56265822
546,6041000.842020614
548,6041185.62227861
550,6041417.424304846
552,6041416.558134237
554,6041406.234595028
556,6041786.306435366
558,6041467.139882345
560,6041133.229981989
562,6041334.584999447
564,6041184.412844567
566,6041492.9376377165
568,6041443.094151026
570,6041182.807967393
572,6041541.399427873
574,6041224.7591414135
576,6041734.434366233
578,6041697.087250237
580,6041396.541306835
582,6041193.37587969
584,6040821.211342552
586,6041244.894739487
588,6041381.849517374
590,6041633.056801522
592,6041694.594096727
594,6041418.753896264
596,6041230.447861522
598,6041373.218851907
600,6041384.380556848
602,6041055.594155314
604,6041023.414274044
606,6041418.273755138
608,6041561.377737885
610,6041519.956493899
612,6041473.810862039
614,6041513.746097597
616,6041644.6757644275
618,6041802.952180416
620,6041689.025649867
622,6041177.881110798
624,6040766.005653495
626,6041596.103218016
628,6042418.490023593
630,6042179.704909139
632,6041723.692896891
634,6041472.317448531
636,6041530.269283321
638,6041834.840503452
640,6042249.194816172
642,6042622.398105737
644,6042803.516256401
646,6042641.6151524205
648,6041985.76067805
650,6041406.831829861
652,6041706.031604394
654,6041397.68979394
656,6041151.2162423525
658,6041511.431179055
660,6041551.262287386
662,6041377.486709236
664,6041484.487439383
666,6041443.750089349
668,6041107.991048771
670,6041563.760999665
672,6041267.2062764475
674,6041163.483843256
676,6041536.128915831
678,6041346.24345349
680,6041150.289956291
682,6041410.314774397
684,6041560.064687422
686,6041447.9187860545
688,6040955.81893969
690,6041315.875338955
692,6041350.307975556
694,6041850.281893436
696,6041497.367671758
698,6041199.302168769
700,6041453.64627868
702,6041828.693192877
704,6040860.42770877
706,6041675.622792104
708,6041571.681644926
710,6041346.454989626
712,6041546.234560798
714,6041858.824615336
716,6041142.5820534965
718,6041286.403162461
720,6041703.1207177285
722,6041807.585318082
724,6041329.8607438
726,6041296.890614847
728,6041527.288726995
730,6041723.792105585
732,6041192.330811199
734,6041150.1016538385
736,6041704.398114255
738,6041255.137810724
740,6041344.973276121
742,6041402.044472554
744,6041509.896928869
746,6041611.23472158
748,6041281.529689905
750,6041392.455248062
752,6040981.1977447625
754,6041295.389267499
756,6041239.4416478425
758,6041271.659960353
760,6041533.037164191
762,6033170.558480699
764,5997309.196911797
766,5919816.184365741
768,5789128.623488824
770,5591227.92157777
772,5331562.926099856
774,5030824.995786329
776,4699258.250554136
778,4346757.545140255
780,3987299.429810042
782,3631624.3336451664
784,3286378.269654552
786,2964560.482130975
788,2677357.907088312
790,2431812.978824052
792,2227005.630354121
794,2056991.6675400746
796,1912122.286436368
798,1783069.2196949078
800,1663500.214270693
802,1548744.6415391257
804,1440089.3704584274
806,1338355.7413583586
808,1246002.4351940232
810,1164641.9993123675
812,1094313.8934356393
814,1033315.1507154639
816,979276.3012057306
818,928884.3489745458
820,880151.1850921786
822,831067.2044299131
824,781134.7456778135
826,731197.4373941015
828,682133.9307999852
830,635157.065687494
832,590767.9318637582
834,549817.9262336656
836,511926.9827578021
838,476508.58827418834
840,442988.8091633684
842,410512.7161371145
844,378885.83903410326
846,347759.8550145639
848,317145.038704723
850,286997.5341464601
852,257814.11993689087
854,229635.74166079867
856,202883.51438950063
858,177548.2583061767
860,153963.78261275878
862,132580.8515415665
864,113288.53811543316
866,96239.40874515912
868,81413.00428997858
870,68826.20859127876
872,58133.754868965356
874,49160.33286656182
876,41666.7751322839
878,35497.06635140222
880,30295.018445045593
882,25695.68578759554
884,21591.37521759164
886,17852.922836174053
888,14389.809163301048
890,11160.697668091325
892,8122.388938503005
894,5540.658797514908
896,3560.8201047046186
898,2067.8082667675035
900,1036.1379326991748
902,389.7262820249188
904,91.05201843704549
906,33.85408597934234
908,10.175341117526877
910,0.4798427012002451
912,-3.482973111878331
914,2.393407046365594
916,-5.54246237681494
918,-0.29287613119402345
920,-2.3379566926154904
922,4.289920058427215
924,0.9442159283387628
926,-2.7336637591896857
928,1.0006701908683229
930,-1.3057717257606596
932,1.5404292547943992
934,4.001179039549514
936,-1.414773894536123
938,3.248233771030033
940,0.4896997775772239
942,3.269850699677664
944,0.8757233738836303
946,1.835094323646329
948,-1.5911823412967454
950,0.22756291881490442
952,1.4645588048001232
954,3.043621082643513
956,0.027056986644400358
958,-0.10659459427895207
960,-0.7023202398106899
962,-2.0064684457895754
964,-3.0020412361544704
966,-2.2327748367148637
968,-2.2451702637504916
970,3.087313082970052
972,-1.474238603491238
974,-1.3750943045639343
976,0.09099228775895851
978,-4.359327552662422
980,0.17173412192045567
982,0.5883557203648353
984,-0.6237451035931326
986,0.24693956783995888
988,-1.1733774690472267
990,1.089032408027303
992,0.5823660453244227
994,0.22070109661222787
996,-2.4283186811864717
998,-1.410528741235163
