wave,flux
336,887.7585031642853
338,1217.143427048486
340,1794.910907760004
342,2629.8437568814684
344,3607.099192439084
346,4744.535896727731
348,6109.484038794393
350,7700.155116893317
352,9483.027669574007
354,11527.121494909048
356,13843.87423341993
358,16507.079561026876
360,19796.41890488618
362,23680.86300713496
364,27884.57091995248
366,32537.482488002926
368,38184.26387369055
370,45674.331527063
372,56577.03824047048
374,73262.09415938547
376,99689.09959212798
378,139744.43482172312
380,193984.93338880446
382,256051.4062153663
384,315817.4569648252
386,365699.5222977436
388,409824.6161457701
390,465052.8438303328
392,554431.4343678532
394,681719.6520543526
396,829827.8332761459
398,968626.5466791518
400,1087005.3777182412
402,1187522.050559811
404,1282358.0809222923
406,1377273.4150371314
408,1473284.3277770581
410,1566737.1202048329
412,1651513.5047514038
414,1724391.3247837066
416,1788217.444426796
418,1854840.51778485
420,1940753.9470233887
422,2062666.4709849046
424,2229698.1997117484
426,2441791.902488871
428,2686584.919269881
430,2939316.218027259
432,3170264.5856974693
434,3356862.272911425
436,3492818.3636967386
438,3593044.87548025
440,3683349.399963478
442,3791159.4805657133
444,3934167.1160325627
446,4120626.291047532
448,4351887.550939947
450,4629487.266725843
452,4934133.614247029
454,5239520.606967544
456,5520368.030788888
458,5746942.9040099885
460,5897836.5085696215
462,5986869.0036554765
464,6029158.234009833
466,6041505.600710276
468,6041276.699987451
470,6041305.062347475
472,6041408.990312296
474,6041273.795498599
476,6041546.444817104
478,6040996.734277732
480,6041774.855796557
482,6041155.048817972
484,6041516.709505365
486,6041514.114325377
488,6041390.488227064
490,6041552.23036619
492,6041693.438817908
494,6041251.921822883
496,6041350.129772491
498,6041210.62163488
500,6041779.297063785
502,6041141.062815428
504,6041556.020139495
506,6041435.795867266
508,6041231.270759691
510,6041677.2652562
512,6041216.837177556
514,6041320.983166491
516,6041806.662705353
518,6041272.150206229
520,6041277.463624937
522,6041375.018137274
524,6041775.407677538
526,6041503.440436966
528,6041039.509119668
530,6041459.426592769
532,6041480.087301199
534,6041475.869950075
536,6041342.02525945
538,6041571.018355781
540,6041247.572125011
542,6041292.812290088
544,6041568.708190656
546,6041269.826442478
548,6041416.3130749585
550,6041139.6895832475
552,6041280.744542842
554,6041318.982441673
556,6041118.397084009
558,6041129.813668595
560,6040834.468767444
562,6041297.289896631
564,6041610.683106538
566,6041547.947723999
568,6041561.728787214
570,6041223.885574061
572,6041310.19327145
574,6041076.876796389
576,6041407.347952867
578,6041632.29168546
580,6041444.558914185
582,6041442.9154653
584,6041540.510572555
586,6041364.671070912
588,6041397.505208488
590,6041293.682562573
592,6041199.113835537
594,6041284.757254549
596,6041338.190901126
598,6041143.959821524
600,6040996.561399382
602,6041207.089893001
604,6041638.081515511
606,6041839.426150566
608,6041554.204855986
610,6041219.544455951
612,6041534.220238596
614,6041985.157494983
616,6041638.02642874
618,6041133.36722911
620,6041804.555458289
622,6042171.396703621
624,6040543.976280335
626,6040915.866628617
628,6042189.619490254
630,6042316.051765531
632,6041991.664453412
634,6041743.064316567
636,6041946.66763887
638,6042670.792262103
640,6043132.358357878
642,6043051.763008412
644,6042709.705501103
646,6042407.920237271
648,6041629.771124465
650,6041369.091113609
652,6041687.441256925
654,6041397.682130602
656,6041151.256331934
658,6041511.4337615
660,6041551.262361634
662,6041377.486707688
664,6041484.487439082
666,6041443.750089329
668,6041107.991048772
670,6041563.760999665
672,6041267.2062764475
674,6041163.483843256
676,6041536.128915831
678,6041346.24345349
680,6041150.289956291
682,6041410.314774397
684,6041560.064687422
686,6041447.9187860545
688,6040955.81893969
690,6041315.875338955
692,6041350.307975556
694,6041850.281893436
696,6041497.367671758
698,6041199.302168769
700,6041453.64627868
702,6041828.693192877
704,6040860.42770877
706,6041675.622792104
708,6041571.681644926
710,6041346.454989626
712,6041546.234560798
714,6041858.824615336
716,6041142.5820534965
718,6041286.403162461
720,6041703.1207177285
722,6041807.585318082
724,6041329.8607438
726,6041296.890614847
728,6041527.288726995
730,6041723.792105585
732,6041192.330811199
734,6041150.1016538385
736,6041704.398114255
738,6041255.137810724
740,6041344.973276121
742,6041402.044472554
744,6041509.896928869
746,6041611.23472158
748,6041281.529689905
750,6041392.455248062
752,6040981.1977447625
754,6041295.389267499
756,6041239.4416478425
758,6041271.659960353
760,6041533.037164191
762,6033170.558480699
764,5997309.196911797
766,5919816.184365741
768,5789128.623488824
770,5591227.92157777
772,5331562.926099856
774,5030824.995786329
776,4699258.250554136
778,4346757.545140255
780,3987299.429810042
782,3631624.3336451664
784,3286378.269654552
786,2964560.482130975
788,2677357.907088312
790,2431812.978824052
792,2227005.630354121
794,2056991.6675400746
796,1912122.286436368
798,1783069.2196949078
800,1663500.214270693
802,1548744.6415391257
804,1440089.3704584274
806,1338355.7413583586
808,1246002.4351940232
810,1164641.9993123675
812,1094313.8934356393
814,1033315.1507154639
816,979276.3012057306
818,928884.3489745458
820,880151.1850921786
822,831067.2044299131
824,781134.7456778135
826,731197.4373941015
828,682133.9307999852
830,635157.065687494
832,590767.9318637582
834,549817.9262336656
836,511926.9827578021
838,476508.58827418834
840,442988.8091633684
842,410512.7161371145
844,378885.83903410326
846,347759.8550145639
848,317145.038704723
850,286997.5341464601
852,257814.11993689087
854,229635.74166079867
856,202883.51438950063
858,177548.2583061767
860,153963.78261275878
862,132580.8515415665
864,113288.53811543316
866,96239.40874515912
868,81413.00428997858
870,68826.20859127876
872,58133.754868965356
874,49160.33286656182
876,41666.7751322839
878,35497.06635140222
880,30295.018445045593
882,25695.68578759554
884,21591.37521759164
886,17852.922836174053
888,14389.809163301048
890,11160.697668091325
892,8122.388938503005
894,5540.658797514908
896,3560.8201047046186
898,2067.8082667675035
900,1036.1379326991748
902,389.7262820249188
904,91.05201843704549
906,33.85408597934234
908,10.175341117526877
910,0.4798427012002451
912,-3.482973111878331
914,2.393407046365594
916,-5.54246237681494
918,-0.29287613119402345
920,-2.3379566926154904
922,4.289920058427215
924,0.9442159283387628
926,-2.7336637591896857
928,1.0006701908683229
930,-1.3057717257606596
932,1.5404292547943992
934,4.001179039549514
936,-1.414773894536123
938,3.248233771030033
940,0.4896997775772239
942,3.269850699677664
944,0.8757233738836303
946,1.835094323646329
948,-1.5911823412967454
950,0.22756291881490442
952,1.4645588048001232
954,3.043621082643513
956,0.027056986644400358
958,-0.10659459427895207
960,-0.7023202398106899
962,-2.0064684457895754
964,-3.0020412361544704
966,-2.2327748367148637
968,-2.2451702637504916
970,3.087313082970052
972,-1.474238603491238
974,-1.3750943045639343
976,0.09099228775895851
978,-4.359327552662422
980,0.17173412192045567
982,0.5883557203648353
984,-0.6237451035931326
986,0.24693956783995888
988,-1.1733774690472267
990,1.089032408027303
992,0.5823660453244227
994,0.22070109661222787
996,-2.4283186811864717
998,-1.410528741235163
