wave,flux
336,390.78634203508386
338,598.4203134265914
340,909.2136388868526
342,1482.0448233798404
344,2450.220454254077
346,3575.620886240392
348,4524.697154832186
350,5302.525111649655
352,6084.012715803448
354,7102.558220656783
356,8419.328339845002
358,10148.867892128634
360,12611.537218893922
362,15532.42791480254
364,18387.684844163225
366,21490.51820824229
368,25001.746215558727
370,28439.7791812767
372,31852.188238396142
374,35869.50213844069
376,42655.47120257124
378,56111.43533854966
380,80422.17126165182
382,116236.83857210647
384,161261.92350612022
386,209600.543489504
388,257048.74189878418
390,310277.0137272234
392,394935.8477415668
394,525174.6860384317
396,696340.8737408295
398,875361.0897852594
400,1040468.4884511062
402,1168161.4146869918
404,1245572.0770061358
406,1263917.4514986617
408,1234038.972124188
410,1181836.0837080604
412,1134186.3712918782
414,1110482.2900589881
416,1121954.8471639839
418,1175301.4198868133
420,1275962.6148074237
422,1428643.600251692
424,1633514.0475604343
426,1882732.0039067771
428,2153588.681406396
430,2407421.0401919084
432,2602488.1623112177
434,2713052.004310412
436,2742137.59965557
438,2719651.723687004
440,2678653.3888654546
442,2640894.7653534138
444,2609775.2237071046
446,2584984.3610384287
448,2576845.4309551017
450,2613855.0760811316
452,2744270.109501965
454,3020671.021891796
456,3452332.722172025
458,3996727.753964311
460,4587122.350544314
462,5136701.285796423
464,5551799.151798284
466,5824051.406324178
468,5975035.309163915
470,6033447.929157747
472,6041740.349417587
474,6041423.89904712
476,6041285.216680298
478,6041313.6365786055
480,6041435.688455409
482,6041450.709244695
484,6041341.71903196
486,6041394.568255802
488,6040973.33469131
490,6041788.909320708
492,6041209.208930406
494,6041666.9383453
496,6041474.099460545
498,6041539.999946939
500,6041606.499836734
502,6041006.824388416
504,6041279.610850722
506,6041731.501803871
508,6041172.509530426
510,6041437.201411799
512,6041444.727439385
514,6041630.170058923
516,6041358.900254389
518,6041361.348730959
520,6041259.075007967
522,6041360.500942895
524,6041203.2640096
526,6040982.284787559
528,6041189.491139141
530,6041251.545333503
532,6041204.507989832
534,6041320.429921869
536,6041593.787495508
538,6041258.885574242
540,6041173.13939225
542,6041146.2239155285
544,6041095.553061017
546,6041217.937964273
548,6041104.635512521
550,6041182.93617611
552,6041201.211705447
554,6041255.187507927
556,6041567.664901309
558,6041799.400344827
560,6041538.001513856
562,6041624.165274299
564,6041045.938588207
566,6041164.056266602
568,6041356.884444063
570,6041792.650359979
572,6041062.538941032
574,6041577.610222958
576,6041658.318412516
578,6041307.956676368
580,6041083.804777389
582,6041196.232065702
584,6041547.162654741
586,6041530.307413402
588,6041536.575814322
590,6041384.695729223
592,6041419.7446197625
594,6041442.793536931
596,6041356.697463243
598,6041447.570540841
600,6041261.482714246
602,6041271.711943661
604,6041369.875824752
606,6041445.32778289
608,6041742.739607687
610,6041929.903457147
612,6041917.474441451
614,6041548.497567507
616,6040988.356347995
618,6041149.939714801
620,6041458.328849301
622,6041277.148415988
624,6040994.971276906
626,6041974.917749341
628,6042450.754728965
630,6041795.3435657
632,6042215.578723587
634,6041418.528645083
636,6039880.744980106
638,6040578.654619088
640,6041658.382070359
642,6042329.27629168
644,6042903.750172277
646,6042298.367019864
648,6041853.299339335
650,6043114.377575876
652,6042126.993523538
654,6039850.158999795
656,6040757.788152953
658,6041456.373037273
660,6040782.656952501
662,6042342.2255647
664,6043836.915431928
666,6042701.798792121
668,6041890.1466384325
670,6041939.621087752
672,6041031.054666518
674,6039578.260052047
676,6038835.406750409
678,6040014.826494447
680,6041131.330142133
682,6038344.740904708
684,6036196.209723433
686,6039686.299558181
688,6042967.356854894
690,6042497.071077047
692,6042264.432722109
694,6043202.03781242
696,6042881.416479997
698,6041584.610550573
700,6041071.329368375
702,6041838.134236002
704,6040861.38683343
706,6041675.716901812
708,6041571.690463047
710,6041346.455770297
712,6041546.234625055
714,6041858.824620098
716,6041142.582053789
718,6041286.40316247
720,6041703.1207177285
722,6041807.585318082
724,6041329.8607438
726,6041296.890614847
728,6041527.288726995
730,6041723.792105585
732,6041192.330811199
734,6041150.1016538385
736,6041704.398114255
738,6041255.137810724
740,6041344.973276121
742,6041402.044472554
744,6041509.896928869
746,6041611.23472158
748,6041281.529689905
750,6041392.455248062
752,6040981.1977447625
754,6041295.389267499
756,6041239.4416478425
758,6041271.659960353
760,6041533.037164191
762,6033170.558480699
764,5997309.196911797
766,5919816.184365741
768,5789128.623488824
770,5591227.92157777
772,5331562.926099856
774,5030824.995786329
776,4699258.250554136
778,4346757.545140255
780,3987299.429810042
782,3631624.3336451664
784,3286378.269654552
786,2964560.482130975
788,2677357.907088312
790,2431812.978824052
792,2227005.630354121
794,2056991.6675400746
796,1912122.286436368
798,1783069.2196949078
800,1663500.214270693
802,1548744.6415391257
804,1440089.3704584274
806,1338355.7413583586
808,1246002.4351940232
810,1164641.9993123675
812,1094313.8934356393
814,1033315.1507154639
816,979276.3012057306
818,928884.3489745458
820,880151.1850921786
822,831067.2044299131
824,781134.7456778135
826,731197.4373941015
828,682133.9307999852
830,635157.065687494
832,590767.9318637582
834,549817.9262336656
836,511926.9827578021
838,476508.58827418834
840,442988.8091633684
842,410512.7161371145
844,378885.83903410326
846,347759.8550145639
848,317145.038704723
850,286997.5341464601
852,257814.11993689087
854,229635.74166079867
856,202883.51438950063
858,177548.2583061767
860,153963.78261275878
862,132580.8515415665
864,113288.53811543316
866,96239.40874515912
868,81413.00428997858
870,68826.20859127876
872,58133.754868965356
874,49160.33286656182
876,41666.7751322839
878,35497.06635140222
880,30295.018445045593
882,25695.68578759554
884,21591.37521759164
886,17852.922836174053
888,14389.809163301048
890,11160.697668091325
892,8122.388938503005
894,5540.658797514908
896,3560.8201047046186
898,2067.8082667675035
900,1036.1379326991748
902,389.7262820249188
904,91.05201843704549
906,33.85408597934234
908,10.175341117526877
910,0.4798427012002451
912,-3.482973111878331
914,2.393407046365594
916,-5.54246237681494
918,-0.29287613119402345
920,-2.3379566926154904
922,4.289920058427215
924,0.9442159283387628
926,-2.7336637591896857
928,1.0006701908683229
930,-1.3057717257606596
932,1.5404292547943992
934,4.001179039549514
936,-1.414773894536123
938,3.248233771030033
940,0.4896997775772239
942,3.269850699677664
944,0.8757233738836303
946,1.835094323646329
948,-1.5911823412967454
950,0.22756291881490442
952,1.4645588048001232
954,3.043621082643513
956,0.027056986644400358
958,-0.10659459427895207
960,-0.7023202398106899
962,-2.0064684457895754
964,-3.0020412361544704
966,-2.2327748367148637
968,-2.2451702637504916
970,3.087313082970052
972,-1.474238603491238
974,-1.3750943045639343
976,0.09099228775895851
978,-4.359327552662422
980,0.17173412192045567
982,0.5883557203648353
984,-0.6237451035931326
986,0.24693956783995888
988,-1.1733774690472267
990,1.089032408027303
992,0.5823660453244227
994,0.22070109661222787
996,-2.4283186811864717
998,-1.410528741235163
