wave,flux
336,695.2147566451382
338,1028.3102328396044
340,1530.0856133825382
342,2300.526416999073
344,3329.020459570275
346,4594.095736072027
348,6168.911002614013
350,8105.056755859737
352,10404.148256017626
354,13080.67030431395
356,16133.977425031166
358,19535.32432808732
360,23425.442519246302
362,27990.103923519273
364,33361.011599195954
366,39779.96933707911
368,47727.93556037563
370,58166.513015490826
372,72665.88520754536
374,93357.42906312499
376,121777.88513596932
378,157629.60712973744
380,199001.03771585572
382,244171.7270763868
384,292629.3263578404
386,344952.9870407346
388,402906.9125804044
390,470777.9730301134
392,555387.9127191852
394,661914.973068436
396,790083.302036828
398,933246.9694532409
400,1082160.9436339256
402,1231133.935541545
404,1379283.636880205
406,1532444.8472613522
408,1695546.7303699222
410,1868841.3108151322
412,2046542.6499904299
414,2219755.8611021694
416,2383147.2347659646
418,2538189.3820739654
420,2690857.6625957894
422,2849733.947815343
424,3021815.757638118
426,3211537.7380745457
428,3421122.2594633447
430,3649540.98973565
432,3894697.7459118282
434,4155229.94102339
436,4429764.671438426
438,4719533.689298718
440,5021118.953635898
442,5313497.876075619
444,5575992.962531244
446,5783917.721396006
448,5921933.3870076705
450,5998519.066526638
452,6032749.111896162
454,6041359.470480097
456,6041445.441868184
458,6041406.314563972
460,6041827.339148131
462,6041345.494288056
464,6041462.739651292
466,6041404.774322594
468,6041249.182117324
470,6041177.72295045
472,6041203.478013412
474,6041495.377320091
476,6041136.37508272
478,6041213.818788964
480,6041148.844699697
482,6041391.763009406
484,6041123.638300977
486,6041101.2148890775
488,6041439.005074887
490,6041498.898424782
492,6041499.013181482
494,6041493.216219512
496,6041206.854460539
498,6041162.793952492
500,6041091.967131326
502,6041176.253559271
504,6041598.4570968095
506,6041600.221942067
508,6041476.860225953
510,6041899.274764897
512,6041235.355961584
514,6041417.368298644
516,6041615.273410109
518,6041344.003410469
520,6041200.33709039
522,6041342.58388704
524,6041791.19726416
526,6041567.514192606
528,6041069.983859098
530,6041061.752041877
532,6041458.786770066
534,6041650.952055631
536,6041530.543863283
538,6041702.382743264
540,6041839.254521312
542,6041073.176195745
544,6041440.047914903
546,6041560.388560742
548,6041662.00502822
550,6041393.588258712
552,6041473.894372608
554,6041404.713178709
556,6041060.360844823
558,6041271.340371129
560,6041411.620162766
562,6041296.411077792
564,6041495.975805131
566,6041492.250009242
568,6041754.69314428
570,6041652.236338955
572,6041280.001582099
574,6041325.336053152
576,6041865.4352075765
578,6041482.020816509
580,6041284.731826347
582,6041582.655706551
584,6041344.966276626
586,6041319.867620197
588,6041521.370047839
590,6041686.188019838
592,6041338.083467021
594,6041237.886943071
596,6041586.664749448
598,6041425.492552454
600,6041191.969040387
602,6041403.253154004
604,6041487.128728495
606,6041308.017719688
608,6041486.876169562
610,6041549.859655113
612,6041544.414159626
614,6041351.847465233
616,6040950.194559092
618,6041172.366451351
620,6042064.9564856
622,6042260.315170981
624,6041061.181312828
626,6041362.175274875
628,6041605.6815793235
630,6041072.541234324
632,6042369.793418924
634,6042330.142215617
636,6040680.695068973
638,6040650.235053752
640,6042103.7600247385
642,6042906.257274335
644,6041371.450201587
646,6039927.583532312
648,6040495.326156307
650,6041855.050767514
652,6037718.638415268
654,6041441.123092141
656,6040678.276096439
658,6041080.613406282
660,6041885.204250869
662,6041351.921608424
664,6041479.530003343
666,6041443.4053044105
668,6041107.975073055
670,6041563.760598069
672,6041267.206287683
674,6041163.48384553
676,6041536.128916033
678,6041346.243453504
680,6041150.289956292
682,6041410.314774397
684,6041560.064687422
686,6041447.9187860545
688,6040955.81893969
690,6041315.875338955
692,6041350.307975556
694,6041850.281893436
696,6041497.367671758
698,6041199.302168769
700,6041453.64627868
702,6041828.693192877
704,6040860.42770877
706,6041675.622792104
708,6041571.681644926
710,6041346.454989626
712,6041546.234560798
714,6041858.824615336
716,6041142.5820534965
718,6041286.403162461
720,6041703.1207177285
722,6041807.585318082
724,6041329.8607438
726,6041296.890614847
728,6041527.288726995
730,6041723.792105585
732,6041192.330811199
734,6041150.1016538385
736,6041704.398114255
738,6041255.137810724
740,6041344.973276121
742,6041402.044472554
744,6041509.896928869
746,6041611.23472158
748,6041281.529689905
750,6041392.455248062
752,6040981.1977447625
754,6041295.389267499
756,6041239.4416478425
758,6041271.659960353
760,6041533.037164191
762,6033170.558480699
764,5997309.196911797
766,5919816.184365741
768,5789128.623488824
770,5591227.92157777
772,5331562.926099856
774,5030824.995786329
776,4699258.250554136
778,4346757.545140255
780,3987299.429810042
782,3631624.3336451664
784,3286378.269654552
786,2964560.482130975
788,2677357.907088312
790,2431812.978824052
792,2227005.630354121
794,2056991.6675400746
796,1912122.286436368
798,1783069.2196949078
800,1663500.214270693
802,1548744.6415391257
804,1440089.3704584274
806,1338355.7413583586
808,1246002.4351940232
810,1164641.9993123675
812,1094313.8934356393
814,1033315.1507154639
816,979276.3012057306
818,928884.3489745458
820,880151.1850921786
822,831067.2044299131
824,781134.7456778135
826,731197.4373941015
828,682133.9307999852
830,635157.065687494
832,590767.9318637582
834,549817.9262336656
836,511926.9827578021
838,476508.58827418834
840,442988.8091633684
842,410512.7161371145
844,378885.83903410326
846,347759.8550145639
848,317145.038704723
850,286997.5341464601
852,257814.11993689087
854,229635.74166079867
856,202883.51438950063
858,177548.2583061767
860,153963.78261275878
862,132580.8515415665
864,113288.53811543316
866,96239.40874515912
868,81413.00428997858
870,68826.20859127876
872,58133.754868965356
874,49160.33286656182
876,41666.7751322839
878,35497.06635140222
880,30295.018445045593
882,25695.68578759554
884,21591.37521759164
886,17852.922836174053
888,14389.809163301048
890,11160.697668091325
892,8122.388938503005
894,5540.658797514908
896,3560.8201047046186
898,2067.8082667675035
900,1036.1379326991748
902,389.7262820249188
904,91.05201843704549
906,33.85408597934234
908,10.175341117526877
910,0.4798427012002451
912,-3.482973111878331
914,2.393407046365594
916,-5.54246237681494
918,-0.29287613119402345
920,-2.3379566926154904
922,4.289920058427215
924,0.9442159283387628
926,-2.7336637591896857
928,1.0006701908683229
930,-1.3057717257606596
932,1.5404292547943992
934,4.001179039549514
936,-1.414773894536123
938,3.248233771030033
940,0.4896997775772239
942,3.269850699677664
944,0.8757233738836303
946,1.835094323646329
948,-1.5911823412967454
950,0.22756291881490442
952,1.4645588048001232
954,3.043621082643513
956,0.027056986644400358
958,-0.10659459427895207
960,-0.7023202398106899
962,-2.0064684457895754
964,-3.0020412361544704
966,-2.2327748367148637
968,-2.2451702637504916
970,3.087313082970052
972,-1.474238603491238
974,-1.3750943045639343
976,0.09099228775895851
978,-4.359327552662422
980,0.17173412192045567
982,0.5883557203648353
984,-0.6237451035931326
986,0.24693956783995888
988,-1.1733774690472267
990,1.089032408027303
992,0.5823660453244227
994,0.22070109661222787
996,-2.4283186811864717
998,-1.410528741235163
