wave,flux
336,395.5516824861103
338,586.9832894671728
340,853.1911926559445
342,1247.9011202338995
344,1799.015550157683
346,2494.0913497909487
348,3382.3503944627814
350,4457.721229052978
352,5740.403722879454
354,7283.154967162415
356,9114.714959112442
358,11206.260509937214
360,13618.0833227031
362,16474.52118123996
364,19820.575978936704
366,23824.667252748422
368,28868.246796454856
370,35619.51322878186
372,45111.850608951034
374,58548.8034246259
376,76484.13647972525
378,98225.9346978655
380,122459.84988662756
382,148617.34215458206
384,177303.40506681293
386,209129.93423710935
388,244377.58604108798
390,283851.1070243279
392,330646.2290528033
394,388138.7117060412
396,458016.5974150879
398,538735.6466963858
400,626579.3252087539
402,718044.3139337586
404,811727.5082722683
406,909169.5565361845
408,1012659.9070586505
410,1123125.4346749093
412,1239404.4134397416
414,1359005.4822085209
416,1481447.3375499095
418,1608310.672699097
420,1741731.8194965853
422,1884778.5932613253
424,2038243.6490424846
426,2203208.4407448173
428,2378536.0199242784
430,2562328.307860869
432,2753391.948932908
434,2950440.158608035
436,3157197.526578622
438,3378550.6732413718
440,3621128.155219272
442,3889502.806853533
444,4182216.355481196
446,4495458.907835956
448,4820819.9902383275
450,5138064.590612081
452,5425658.391608336
454,5665407.777226862
456,5841121.472112618
458,5950872.505015869
460,6010687.918539077
462,6035654.628993478
464,6041298.6474605305
466,6041366.910614247
468,6041635.861248184
470,6041012.875312829
472,6041630.451593771
474,6041097.349884325
476,6041650.872528726
478,6041959.3891459135
480,6041757.426443702
482,6041181.195040016
484,6041138.368066152
486,6041332.915457305
488,6041672.674350603
490,6041024.991346502
492,6041341.739531887
494,6041526.764932829
496,6041258.797461851
498,6041488.848164179
500,6041383.182519384
502,6041798.766236079
504,6041643.004222287
506,6041040.524866544
508,6041664.864455487
510,6041414.369130715
512,6041207.038531389
514,6041060.5735271275
516,6041546.300872844
518,6041521.302096775
520,6041110.684425569
522,6041386.715928791
524,6041485.4424697105
526,6041689.651016468
528,6041184.0043002805
530,6041112.064654015
532,6041406.539995981
534,6041613.291906369
536,6041470.814501972
538,6041664.760418948
540,6041487.291906731
542,6041364.507247344
544,6041183.256890717
546,6041487.239647923
548,6041630.382105525
550,6041852.441216747
552,6041652.720199326
554,6041416.127881432
556,6041325.7576871775
558,6041280.579391284
560,6041579.309986398
562,6041381.066595591
564,6041367.210971941
566,6041443.055039442
568,6041248.326903447
570,6041066.076378377
572,6041510.5222115945
574,6041534.059357116
576,6041647.566776376
578,6041422.407260218
580,6041275.423216864
582,6041505.488796611
584,6041605.579459604
586,6041558.751480558
588,6041318.9592973
590,6041242.8485678155
592,6041428.043936991
594,6041476.684081496
596,6041349.881639688
598,6041376.042646015
600,6041257.953216351
602,6041324.17485371
604,6041380.216243312
606,6041135.711431144
608,6040873.395867317
610,6041124.982330798
612,6041287.931665862
614,6041257.295317381
616,6041311.441895374
618,6041093.990620683
620,6041716.539163787
622,6041625.958620801
624,6039338.997818706
626,6039984.033104755
628,6041302.619196335
630,6040871.7430534335
632,6041100.470196343
634,6041110.8886826765
636,6040925.4346007025
638,6041516.733663257
640,6040977.424345452
642,6040855.460392598
644,6043315.292382274
646,6043485.784928415
648,6041992.3717163475
650,6042026.520463526
652,6039512.7566547245
654,6041419.258477513
656,6041022.334708851
658,6041503.129037862
660,6041551.023593974
662,6041377.491685364
664,6041484.488404324
666,6041443.75015646
668,6041107.9910518825
670,6041563.760999742
672,6041267.206276447
674,6041163.483843256
676,6041536.128915831
678,6041346.24345349
680,6041150.289956291
682,6041410.314774397
684,6041560.064687422
686,6041447.9187860545
688,6040955.81893969
690,6041315.875338955
692,6041350.307975556
694,6041850.281893436
696,6041497.367671758
698,6041199.302168769
700,6041453.64627868
702,6041828.693192877
704,6040860.42770877
706,6041675.622792104
708,6041571.681644926
710,6041346.454989626
712,6041546.234560798
714,6041858.824615336
716,6041142.5820534965
718,6041286.403162461
720,6041703.1207177285
722,6041807.585318082
724,6041329.8607438
726,6041296.890614847
728,6041527.288726995
730,6041723.792105585
732,6041192.330811199
734,6041150.1016538385
736,6041704.398114255
738,6041255.137810724
740,6041344.973276121
742,6041402.044472554
744,6041509.896928869
746,6041611.23472158
748,6041281.529689905
750,6041392.455248062
752,6040981.1977447625
754,6041295.389267499
756,6041239.4416478425
758,6041271.659960353
760,6041533.037164191
762,6033170.558480699
764,5997309.196911797
766,5919816.184365741
768,5789128.623488824
770,5591227.92157777
772,5331562.926099856
774,5030824.995786329
776,4699258.250554136
778,4346757.545140255
780,3987299.429810042
782,3631624.3336451664
784,3286378.269654552
786,2964560.482130975
788,2677357.907088312
790,2431812.978824052
792,2227005.630354121
794,2056991.6675400746
796,1912122.286436368
798,1783069.2196949078
800,1663500.214270693
802,1548744.6415391257
804,1440089.3704584274
806,1338355.7413583586
808,1246002.4351940232
810,1164641.9993123675
812,1094313.8934356393
814,1033315.1507154639
816,979276.3012057306
818,928884.3489745458
820,880151.1850921786
822,831067.2044299131
824,781134.7456778135
826,731197.4373941015
828,682133.9307999852
830,635157.065687494
832,590767.9318637582
834,549817.9262336656
836,511926.9827578021
838,476508.58827418834
840,442988.8091633684
842,410512.7161371145
844,378885.83903410326
846,347759.8550145639
848,317145.038704723
850,286997.5341464601
852,257814.11993689087
854,229635.74166079867
856,202883.51438950063
858,177548.2583061767
860,153963.78261275878
862,132580.8515415665
864,113288.53811543316
866,96239.40874515912
868,81413.00428997858
870,68826.20859127876
872,58133.754868965356
874,49160.33286656182
876,41666.7751322839
878,35497.06635140222
880,30295.018445045593
882,25695.68578759554
884,21591.37521759164
886,17852.922836174053
888,14389.809163301048
890,11160.697668091325
892,8122.388938503005
894,5540.658797514908
896,3560.8201047046186
898,2067.8082667675035
900,1036.1379326991748
902,389.7262820249188
904,91.05201843704549
906,33.85408597934234
908,10.175341117526877
910,0.4798427012002451
912,-3.482973111878331
914,2.393407046365594
916,-5.54246237681494
918,-0.29287613119402345
920,-2.3379566926154904
922,4.289920058427215
924,0.9442159283387628
926,-2.7336637591896857
928,1.0006701908683229
930,-1.3057717257606596
932,1.5404292547943992
934,4.001179039549514
936,-1.414773894536123
938,3.248233771030033
940,0.4896997775772239
942,3.269850699677664
944,0.8757233738836303
946,1.835094323646329
948,-1.5911823412967454
950,0.22756291881490442
952,1.4645588048001232
954,3.043621082643513
956,0.027056986644400358
958,-0.10659459427895207
960,-0.7023202398106899
962,-2.0064684457895754
964,-3.0020412361544704
966,-2.2327748367148637
968,-2.2451702637504916
970,3.087313082970052
972,-1.474238603491238
974,-1.3750943045639343
976,0.09099228775895851
978,-4.359327552662422
980,0.17173412192045567
982,0.5883557203648353
984,-0.6237451035931326
986,0.24693956783995888
988,-1.1733774690472267
990,1.089032408027303
992,0.5823660453244227
994,0.22070109661222787
996,-2.4283186811864717
998,-1.410528741235163
