wave,flux
336,-0.08367965880438716
338,-1.3579652183411945
340,132.89389932177397
342,1374.2765418398637
344,4562.343759368768
346,8981.566495883344
348,14125.752057118087
350,20221.818412100638
352,27268.008569291895
354,35126.70902476489
356,43939.60995791835
358,53821.69909295198
360,64693.469246993984
362,77039.4082143352
364,91760.11026789971
366,108903.28988294756
368,128364.71903063949
370,150156.52922125199
372,173621.2906709112
374,197462.03375193974
376,221295.74137280372
378,245855.01147141817
380,272256.1300083933
382,301550.612536792
384,336627.8388314684
386,381282.1442369794
388,443109.7726566063
390,540535.3964589222
392,713515.6238559807
394,1019106.0711582988
396,1505564.1437764496
398,2177389.2984529
400,2975457.056435179
402,3802040.746485864
404,4564598.028865396
406,5186195.719250241
408,5631788.907882226
410,5890445.177533003
412,6005462.992506164
414,6039593.366696128
416,6041427.002692258
418,6041611.349021323
420,6041557.052088974
422,6041116.956527874
424,6041551.106596965
426,6041616.575780884
428,6041622.352979866
430,6041283.249850773
432,6041801.444714676
434,6041717.716790582
436,6041476.841602041
438,6041072.49779491
440,6041256.324472858
442,6041092.709361155
444,6041503.577788857
446,6041260.646680326
448,6041924.132392639
450,6041319.179461177
452,6041471.470179626
454,6041658.33665748
456,6041446.783284482
458,6041956.586090551
460,6041902.328294043
462,6041236.774183682
464,6041233.770498748
466,6041564.1379833175
468,6041305.741165471
470,6041454.0906465305
472,6041448.418192443
474,6041503.072076189
476,6041605.587541316
478,6041504.973454314
480,6041230.629238385
482,6041039.757896733
484,6041369.501158028
486,6041369.299032129
488,6041505.608345198
490,6041757.502373461
492,6041714.012584235
494,6041419.412575987
496,6041645.313297314
498,6041490.414967896
500,6041696.371166395
502,6041474.21749755
504,6041830.057694696
506,6041478.74541257
508,6040970.041240574
510,6041573.39102573
512,6041554.695908714
514,6041331.86355607
516,6041840.704613429
518,6041293.061986537
520,6041282.534565634
522,6041515.461138891
524,6041544.7551438585
526,6041608.791565266
528,6041468.478921019
530,6041330.970867865
532,6041238.853300314
534,6041457.937281192
536,6041924.665596365
538,6040876.33136172
540,6041291.550850724
542,6041239.696692536
544,6041250.124786615
546,6041520.163680818
548,6041398.430219651
550,6041322.340207726
552,6041631.609066786
554,6041279.249514533
556,6041277.24345525
558,6041664.396364995
560,6041367.304654451
562,6041419.947921316
564,6041314.932706553
566,6041551.9029871
568,6041145.145502964
570,6041362.081392731
572,6041446.360220329
574,6041201.949162727
576,6040928.862256624
578,6041187.164327162
580,6041429.4806816755
582,6041409.550860612
584,6041326.357133513
586,6041168.080308509
588,6041620.553426556
590,6041226.325086789
592,6041525.519622227
594,6042004.050216943
596,6041658.294749176
598,6041575.093206
600,6041898.751399444
602,6041615.278292699
604,6041204.873358848
606,6041287.377775214
608,6041444.255269473
610,6041390.087452313
612,6041165.396316167
614,6041079.371188102
616,6041386.580834141
618,6041872.247321509
620,6041924.62058819
622,6041844.182688716
624,6042009.186430192
626,6041075.074858331
628,6041231.7312404
630,6042425.203579362
632,6040633.013055278
634,6039873.501456217
636,6041345.980554105
638,6042172.8320625
640,6042700.668611669
642,6042748.9495649645
644,6041775.774318721
646,6040954.1066718735
648,6040897.947656899
650,6041247.0242000045
652,6040790.321509378
654,6040167.668781435
656,6041300.12903169
658,6043756.685915052
660,6042643.780029896
662,6033147.45291699
664,6043295.820570298
666,6041706.734275669
668,6041198.586733321
670,6041566.038379702
672,6041267.142570333
674,6041163.470952226
676,6041536.127781384
678,6041346.243373544
680,6041150.289951273
682,6041410.314774104
684,6041560.064687406
686,6041447.918786054
688,6040955.81893969
690,6041315.875338955
692,6041350.307975556
694,6041850.281893436
696,6041497.367671758
698,6041199.302168769
700,6041453.64627868
702,6041828.693192877
704,6040860.42770877
706,6041675.622792104
708,6041571.681644926
710,6041346.454989626
712,6041546.234560798
714,6041858.824615336
716,6041142.5820534965
718,6041286.403162461
720,6041703.1207177285
722,6041807.585318082
724,6041329.8607438
726,6041296.890614847
728,6041527.288726995
730,6041723.792105585
732,6041192.330811199
734,6041150.1016538385
736,6041704.398114255
738,6041255.137810724
740,6041344.973276121
742,6041402.044472554
744,6041509.896928869
746,6041611.23472158
748,6041281.529689905
750,6041392.455248062
752,6040981.1977447625
754,6041295.389267499
756,6041239.4416478425
758,6041271.659960353
760,6041533.037164191
762,6033170.558480699
764,5997309.196911797
766,5919816.184365741
768,5789128.623488824
770,5591227.92157777
772,5331562.926099856
774,5030824.995786329
776,4699258.250554136
778,4346757.545140255
780,3987299.429810042
782,3631624.3336451664
784,3286378.269654552
786,2964560.482130975
788,2677357.907088312
790,2431812.978824052
792,2227005.630354121
794,2056991.6675400746
796,1912122.286436368
798,1783069.2196949078
800,1663500.214270693
802,1548744.6415391257
804,1440089.3704584274
806,1338355.7413583586
808,1246002.4351940232
810,1164641.9993123675
812,1094313.8934356393
814,1033315.1507154639
816,979276.3012057306
818,928884.3489745458
820,880151.1850921786
822,831067.2044299131
824,781134.7456778135
826,731197.4373941015
828,682133.9307999852
830,635157.065687494
832,590767.9318637582
834,549817.9262336656
836,511926.9827578021
838,476508.58827418834
840,442988.8091633684
842,410512.7161371145
844,378885.83903410326
846,347759.8550145639
848,317145.038704723
850,286997.5341464601
852,257814.11993689087
854,229635.74166079867
856,202883.51438950063
858,177548.2583061767
860,153963.78261275878
862,132580.8515415665
864,113288.53811543316
866,96239.40874515912
868,81413.00428997858
870,68826.20859127876
872,58133.754868965356
874,49160.33286656182
876,41666.7751322839
878,35497.06635140222
880,30295.018445045593
882,25695.68578759554
884,21591.37521759164
886,17852.922836174053
888,14389.809163301048
890,11160.697668091325
892,8122.388938503005
894,5540.658797514908
896,3560.8201047046186
898,2067.8082667675035
900,1036.1379326991748
902,389.7262820249188
904,91.05201843704549
906,33.85408597934234
908,10.175341117526877
910,0.4798427012002451
912,-3.482973111878331
914,2.393407046365594
916,-5.54246237681494
918,-0.29287613119402345
920,-2.3379566926154904
922,4.289920058427215
924,0.9442159283387628
926,-2.7336637591896857
928,1.0006701908683229
930,-1.3057717257606596
932,1.5404292547943992
934,4.001179039549514
936,-1.414773894536123
938,3.248233771030033
940,0.4896997775772239
942,3.269850699677664
944,0.8757233738836303
946,1.835094323646329
948,-1.5911823412967454
950,0.22756291881490442
952,1.4645588048001232
954,3.043621082643513
956,0.027056986644400358
958,-0.10659459427895207
960,-0.7023202398106899
962,-2.0064684457895754
964,-3.0020412361544704
966,-2.2327748367148637
968,-2.2451702637504916
970,3.087313082970052
972,-1.474238603491238
974,-1.3750943045639343
976,0.09099228775895851
978,-4.359327552662422
980,0.17173412192045567
982,0.5883557203648353
984,-0.6237451035931326
986,0.24693956783995888
988,-1.1733774690472267
990,1.089032408027303
992,0.5823660453244227
994,0.22070109661222787
996,-2.4283186811864717
998,-1.410528741235163
