wave,flux
336,5730.788161568394
338,8075.16488107953
340,10924.832024258903
342,13957.450835881984
344,17409.48497475432
346,21725.7938346399
348,26826.143075341814
350,32792.61505993077
352,40205.82240094403
354,48949.05375596058
356,58358.920554217715
358,68572.23350916519
360,80206.6989754405
362,92630.85304508886
364,104966.94522603751
366,119244.16496398562
368,139114.62254266508
370,170001.93882985474
372,225046.85991024767
374,328505.4521548065
376,505071.8376827276
378,759011.3136696282
380,1060507.541556811
382,1357777.9862764492
384,1611067.233344846
386,1817615.1095473513
388,2002204.9696539068
390,2188679.2129456713
392,2385385.0666585723
394,2575569.644476844
396,2744401.7862532227
398,2893269.2435837067
400,3050216.394893945
402,3235735.7919236
404,3447833.773799583
406,3663065.8210578514
408,3863509.528261479
410,4053025.287234353
412,4245564.41184145
414,4444947.166192062
416,4645257.422216618
418,4838162.622529162
420,5040654.896172104
422,5264772.555425733
424,5503666.442748673
426,5731273.080106033
428,5897879.864294415
430,5994268.25426559
432,6034717.562818395
434,6040927.419144296
436,6041349.6029936
438,6041588.128550692
440,6041453.169677867
442,6041042.379836174
444,6041227.784868515
446,6041782.192187879
448,6041273.796151391
450,6041632.472147512
452,6041211.261235273
454,6041781.325688212
456,6041345.520235842
458,6041722.89051405
460,6040909.299869975
462,6041650.11056328
464,6041144.160722095
466,6041192.871261436
468,6041561.152789315
470,6041357.695155643
472,6041147.615001727
474,6041598.814591917
476,6040931.036499493
478,6041616.307522756
480,6041477.046333994
482,6041842.6553045325
484,6041140.074849563
486,6041337.581947811
488,6041572.24060791
490,6041341.31584836
492,6041401.570047363
494,6041534.611655011
496,6041377.428739109
498,6041338.919082588
500,6041702.086487513
502,6041593.944433833
504,6041253.933456178
506,6041481.859124974
508,6041501.494228778
510,6041195.14646904
512,6041100.037512057
514,6041240.59405898
516,6041429.24165521
518,6041586.175045368
520,6041480.994194945
522,6041485.139132317
524,6041650.42695975
526,6041283.159370446
528,6041765.233731388
530,6041707.135100293
532,6041182.175834717
534,6041046.282004663
536,6041351.294623253
538,6041356.7507346235
540,6041464.169661033
542,6041317.0342790345
544,6041544.847785204
546,6041336.837316972
548,6041568.473409908
550,6041718.529780586
552,6041510.432213114
554,6041256.861125993
556,6041129.507480431
558,6041417.433695732
560,6041615.6294878805
562,6041567.353847673
564,6041356.789974663
566,6041285.9596469235
568,6041269.527886327
570,6041314.719234084
572,6041415.909620436
574,6042087.196802792
576,6041302.487216928
578,6041294.903773043
580,6041813.895511603
582,6041608.886800989
584,6041430.379997331
586,6041317.068146788
588,6041065.1652302705
590,6041156.296615041
592,6041620.191450629
594,6041712.345106394
596,6041550.335922091
598,6041728.273911544
600,6041213.880574973
602,6041220.579598176
604,6041541.650677231
606,6041454.471656254
608,6041256.385156749
610,6041405.255469808
612,6041237.659354445
614,6041024.2923775
616,6041450.5977134835
618,6041620.475995502
620,6040936.5157875065
622,6040288.828508228
624,6040714.709482535
626,6040833.163022951
628,6040931.254586171
630,6041459.187665116
632,6041817.370517478
634,6041990.140554599
636,6041763.793354364
638,6040858.952042993
640,6040055.609009467
642,6040706.954689231
644,6042925.146902737
646,6042773.0449310625
648,6040888.507038013
650,6040648.199317173
652,6041266.637918361
654,6041434.950048994
656,6041160.243631008
658,6041541.2103665965
660,6041552.118463606
662,6041377.468860219
664,6041484.483978205
666,6041443.749848629
668,6041107.991037617
670,6041563.760999384
672,6041267.206276456
674,6041163.483843258
676,6041536.128915831
678,6041346.24345349
680,6041150.289956291
682,6041410.314774397
684,6041560.064687422
686,6041447.9187860545
688,6040955.81893969
690,6041315.875338955
692,6041350.307975556
694,6041850.281893436
696,6041497.367671758
698,6041199.302168769
700,6041453.64627868
702,6041828.693192877
704,6040860.42770877
706,6041675.622792104
708,6041571.681644926
710,6041346.454989626
712,6041546.234560798
714,6041858.824615336
716,6041142.5820534965
718,6041286.403162461
720,6041703.1207177285
722,6041807.585318082
724,6041329.8607438
726,6041296.890614847
728,6041527.288726995
730,6041723.792105585
732,6041192.330811199
734,6041150.1016538385
736,6041704.398114255
738,6041255.137810724
740,6041344.973276121
742,6041402.044472554
744,6041509.896928869
746,6041611.23472158
748,6041281.529689905
750,6041392.455248062
752,6040981.1977447625
754,6041295.389267499
756,6041239.4416478425
758,6041271.659960353
760,6041533.037164191
762,6033170.558480699
764,5997309.196911797
766,5919816.184365741
768,5789128.623488824
770,5591227.92157777
772,5331562.926099856
774,5030824.995786329
776,4699258.250554136
778,4346757.545140255
780,3987299.429810042
782,3631624.3336451664
784,3286378.269654552
786,2964560.482130975
788,2677357.907088312
790,2431812.978824052
792,2227005.630354121
794,2056991.6675400746
796,1912122.286436368
798,1783069.2196949078
800,1663500.214270693
802,1548744.6415391257
804,1440089.3704584274
806,1338355.7413583586
808,1246002.4351940232
810,1164641.9993123675
812,1094313.8934356393
814,1033315.1507154639
816,979276.3012057306
818,928884.3489745458
820,880151.1850921786
822,831067.2044299131
824,781134.7456778135
826,731197.4373941015
828,682133.9307999852
830,635157.065687494
832,590767.9318637582
834,549817.9262336656
836,511926.9827578021
838,476508.58827418834
840,442988.8091633684
842,410512.7161371145
844,378885.83903410326
846,347759.8550145639
848,317145.038704723
850,286997.5341464601
852,257814.11993689087
854,229635.74166079867
856,202883.51438950063
858,177548.2583061767
860,153963.78261275878
862,132580.8515415665
864,113288.53811543316
866,96239.40874515912
868,81413.00428997858
870,68826.20859127876
872,58133.754868965356
874,49160.33286656182
876,41666.7751322839
878,35497.06635140222
880,30295.018445045593
882,25695.68578759554
884,21591.37521759164
886,17852.922836174053
888,14389.809163301048
890,11160.697668091325
892,8122.388938503005
894,5540.658797514908
896,3560.8201047046186
898,2067.8082667675035
900,1036.1379326991748
902,389.7262820249188
904,91.05201843704549
906,33.85408597934234
908,10.175341117526877
910,0.4798427012002451
912,-3.482973111878331
914,2.393407046365594
916,-5.54246237681494
918,-0.29287613119402345
920,-2.3379566926154904
922,4.289920058427215
924,0.9442159283387628
926,-2.7336637591896857
928,1.0006701908683229
930,-1.3057717257606596
932,1.5404292547943992
934,4.001179039549514
936,-1.414773894536123
938,3.248233771030033
940,0.4896997775772239
942,3.269850699677664
944,0.8757233738836303
946,1.835094323646329
948,-1.5911823412967454
950,0.22756291881490442
952,1.4645588048001232
954,3.043621082643513
956,0.027056986644400358
958,-0.10659459427895207
960,-0.7023202398106899
962,-2.0064684457895754
964,-3.0020412361544704
966,-2.2327748367148637
968,-2.2451702637504916
970,3.087313082970052
972,-1.474238603491238
974,-1.3750943045639343
976,0.09099228775895851
978,-4.359327552662422
980,0.17173412192045567
982,0.5883557203648353
984,-0.6237451035931326
986,0.24693956783995888
988,-1.1733774690472267
990,1.089032408027303
992,0.5823660453244227
994,0.22070109661222787
996,-2.4283186811864717
998,-1.410528741235163
