wave,flux
336,1.9692034136563876
338,-1.548694461146565
340,-2.3997400268244693
342,0.8684870321017762
344,-1.0558595002566193
346,-0.24733487492045597
348,0.7914342444808325
350,3.3972171387639
352,-1.3037228957473106
354,-1.3591832763986331
356,-1.4266217826102947
358,200.62098128114994
360,1205.7914984040797
362,3190.6480308078285
364,5644.658023706246
366,8340.646320853963
368,11292.46985456596
370,14491.760646977778
372,17642.33853019627
374,20910.189446786102
376,24821.822283255977
378,29698.620091781253
380,35758.705569140126
382,42751.57819345049
384,51475.726975825695
386,62915.263163074094
388,77199.75886214474
390,95093.00363032956
392,123353.1337131737
394,162325.66048406335
396,205849.08492236433
398,240424.6674217676
400,266138.406014524
402,286892.48258453846
404,309100.9311746678
406,332949.11596752034
408,359260.7026013289
410,389789.38126890844
412,426234.63069415255
414,468858.042628971
416,518505.582423062
418,581623.818244259
420,672996.8220419877
422,816802.2162845564
424,1040296.9817131028
426,1361368.8117204558
428,1777334.4285228462
430,2255268.7398418565
432,2742116.712971247
434,3182652.8736019735
436,3542580.8741967343
438,3815760.0581660224
440,4018367.0281056683
442,4172200.5479735383
444,4294980.168836878
446,4396873.77609922
448,4488205.266817663
450,4585529.003543674
452,4713986.463535928
454,4891488.800682836
456,5111924.281151761
458,5357409.910526613
460,5597317.012044632
462,5790594.846869158
464,5922134.106583538
466,5999687.7981880745
468,6033881.063371796
470,6041645.471184764
472,6041400.827398691
474,6041046.459199857
476,6041549.568347252
478,6041224.725767366
480,6041388.267319386
482,6041239.19786754
484,6041226.73843717
486,6041568.3481333535
488,6041423.026495631
490,6041587.765233588
492,6041442.715263963
494,6041704.558275586
496,6041638.19298499
498,6041182.072571231
500,6041575.789811985
502,6041545.9061021805
504,6041227.517082873
506,6041422.72342136
508,6041695.547679518
510,6041229.217098879
512,6041460.17472872
514,6041512.774120008
516,6041625.869516908
518,6040974.03859265
520,6041622.2568266345
522,6041573.335787654
524,6041711.5329440925
526,6041474.501519154
528,6041470.29382189
530,6041476.941873665
532,6041372.023874039
534,6041261.466745042
536,6041296.933342393
538,6041147.817556425
540,6041355.132376219
542,6041126.613282419
544,6041184.861712253
546,6041165.404690213
548,6041180.87084
550,6041320.453762915
552,6041296.6920609195
554,6040948.362633837
556,6041453.486506285
558,6041592.605986651
560,6041480.655553967
562,6041695.194692247
564,6041515.1231846055
566,6041520.183522311
568,6041559.315976114
570,6041332.513997413
572,6041498.19082266
574,6041417.756650682
576,6041407.740313201
578,6041407.969883461
580,6041537.287947091
582,6041510.008616782
584,6041319.634977884
586,6041734.176897637
588,6041959.826986233
590,6041431.236901869
592,6041439.804625471
594,6041601.741910607
596,6041264.952561335
598,6041266.083913379
600,6041654.345015938
602,6041315.797363738
604,6041163.09843045
606,6041602.5379821025
608,6041590.7683785595
610,6041695.252513441
612,6041157.054641884
614,6040747.592871611
616,6041326.932143052
618,6040909.998895846
620,6041952.787736015
622,6043100.982845777
624,6041180.496878024
626,6040626.969781627
628,6041397.902684113
630,6041657.392635039
632,6041182.306946182
634,6040735.524179374
636,6040977.709449744
638,6041885.238378504
640,6042374.425477641
642,6042212.256309801
644,6041906.901446952
646,6041685.853561142
648,6041738.145845174
650,6042024.413918049
652,6041823.377983869
654,6041700.773745796
656,6042753.556284752
658,6042981.849853757
660,6041956.437437968
662,6041919.720798331
664,6042188.63257737
666,6041952.10379776
668,6043066.82043383
670,6044451.050564298
672,6043048.138896655
674,6040693.526390816
676,6039719.698654066
678,6039952.049220459
680,6040899.119946947
682,6041398.847120702
684,6041559.4360745875
686,6041447.885845987
688,6040955.8172646
690,6041315.875254043
692,6041350.307971029
694,6041850.281893158
696,6041497.367671738
698,6041199.302168766
700,6041453.646278679
702,6041828.693192877
704,6040860.42770877
706,6041675.622792104
708,6041571.681644926
710,6041346.454989626
712,6041546.234560798
714,6041858.824615336
716,6041142.5820534965
718,6041286.403162461
720,6041703.1207177285
722,6041807.585318082
724,6041329.8607438
726,6041296.890614847
728,6041527.288726995
730,6041723.792105585
732,6041192.330811199
734,6041150.1016538385
736,6041704.398114255
738,6041255.137810724
740,6041344.973276121
742,6041402.044472554
744,6041509.896928869
746,6041611.23472158
748,6041281.529689905
750,6041392.455248062
752,6040981.1977447625
754,6041295.389267499
756,6041239.4416478425
758,6041271.659960353
760,6041533.037164191
762,6033170.558480699
764,5997309.196911797
766,5919816.184365741
768,5789128.623488824
770,5591227.92157777
772,5331562.926099856
774,5030824.995786329
776,4699258.250554136
778,4346757.545140255
780,3987299.429810042
782,3631624.3336451664
784,3286378.269654552
786,2964560.482130975
788,2677357.907088312
790,2431812.978824052
792,2227005.630354121
794,2056991.6675400746
796,1912122.286436368
798,1783069.2196949078
800,1663500.214270693
802,1548744.6415391257
804,1440089.3704584274
806,1338355.7413583586
808,1246002.4351940232
810,1164641.9993123675
812,1094313.8934356393
814,1033315.1507154639
816,979276.3012057306
818,928884.3489745458
820,880151.1850921786
822,831067.2044299131
824,781134.7456778135
826,731197.4373941015
828,682133.9307999852
830,635157.065687494
832,590767.9318637582
834,549817.9262336656
836,511926.9827578021
838,476508.58827418834
840,442988.8091633684
842,410512.7161371145
844,378885.83903410326
846,347759.8550145639
848,317145.038704723
850,286997.5341464601
852,257814.11993689087
854,229635.74166079867
856,202883.51438950063
858,177548.2583061767
860,153963.78261275878
862,132580.8515415665
864,113288.53811543316
866,96239.40874515912
868,81413.00428997858
870,68826.20859127876
872,58133.754868965356
874,49160.33286656182
876,41666.7751322839
878,35497.06635140222
880,30295.018445045593
882,25695.68578759554
884,21591.37521759164
886,17852.922836174053
888,14389.809163301048
890,11160.697668091325
892,8122.388938503005
894,5540.658797514908
896,3560.8201047046186
898,2067.8082667675035
900,1036.1379326991748
902,389.7262820249188
904,91.05201843704549
906,33.85408597934234
908,10.175341117526877
910,0.4798427012002451
912,-3.482973111878331
914,2.393407046365594
916,-5.54246237681494
918,-0.29287613119402345
920,-2.3379566926154904
922,4.289920058427215
924,0.9442159283387628
926,-2.7336637591896857
928,1.0006701908683229
930,-1.3057717257606596
932,1.5404292547943992
934,4.001179039549514
936,-1.414773894536123
938,3.248233771030033
940,0.4896997775772239
942,3.269850699677664
944,0.8757233738836303
946,1.835094323646329
948,-1.5911823412967454
950,0.22756291881490442
952,1.4645588048001232
954,3.043621082643513
956,0.027056986644400358
958,-0.10659459427895207
960,-0.7023202398106899
962,-2.0064684457895754
964,-3.0020412361544704
966,-2.2327748367148637
968,-2.2451702637504916
970,3.087313082970052
972,-1.474238603491238
974,-1.3750943045639343
976,0.09099228775895851
978,-4.359327552662422
980,0.17173412192045567
982,0.5883557203648353
984,-0.6237451035931326
986,0.24693956783995888
988,-1.1733774690472267
990,1.089032408027303
992,0.5823660453244227
994,0.22070109661222787
996,-2.4283186811864717
998,-1.410528741235163
