wave,flux
336,1.5632902748099515
338,-0.897389534299727
340,48.93029399615959
342,1311.0993051241974
344,6027.783310865961
346,15175.658797089436
348,27286.12725971907
350,39435.39674006539
352,50955.61607580299
354,62844.49668873864
356,76449.4435926678
358,92756.6383057619
360,110906.5919158225
362,130159.22230592919
364,152070.33414685208
366,179308.41035133746
368,212817.80566831704
370,250647.92839733878
372,289032.07227650034
374,325680.6733749647
376,361889.2323987013
378,399280.3375794736
380,438045.04696559755
382,478196.0743788703
384,524607.117493403
386,586191.19604421
388,674749.4631223922
390,812857.5180499429
392,1050127.9651061664
394,1476053.3636084425
396,2207857.131816702
398,3249407.584738897
400,4388303.541581194
402,5314944.090603685
404,5828381.534516907
406,6019234.954880774
408,6041375.160274371
410,6041516.52350182
412,6041759.443041452
414,6041003.393062248
416,6041274.155877743
418,6041117.727375612
420,6041706.71011146
422,6041852.525389627
424,6041360.202048531
426,6041729.927679118
428,6040937.790588312
430,6041177.87709337
432,6041409.759063959
434,6041164.987130555
436,6041463.841807418
438,6041701.763939231
440,6041244.709538326
442,6041306.253448007
444,6041435.645254526
446,6041402.086300491
448,6041305.47366822
450,6041513.596845708
452,6041626.52610766
454,6041281.281271463
456,6041378.379260779
458,6041389.354138517
460,6041253.99083655
462,6041275.902686768
464,6041592.424503673
466,6041479.9132984765
468,6041138.684862945
470,6041388.181311725
472,6041517.569824516
474,6041392.142055191
476,6041408.539644085
478,6041338.325030977
480,6041415.079489545
482,6041072.758747037
484,6041284.41577119
486,6041302.39748207
488,6041492.001340248
490,6041169.92159717
492,6041141.3375239065
494,6041734.449383074
496,6041332.764446367
498,6041301.594547993
500,6041319.363326922
502,6041275.089857468
504,6041653.000930426
506,6041329.779272669
508,6041082.977715227
510,6041668.468757792
512,6041604.694719355
514,6041313.111536067
516,6041548.101794606
518,6041371.076623142
520,6041588.774445998
522,6041809.592514247
524,6041315.54680113
526,6041301.763474261
528,6041156.152572659
530,6040971.14825769
532,6041438.112529651
534,6041978.234394838
536,6041863.460891714
538,6041492.780269628
540,6041724.116472821
542,6041469.977595705
544,6041520.913211583
546,6041302.773625364
548,6041486.335144948
550,6041874.879680957
552,6041206.10733775
554,6041090.438477002
556,6041425.1725016
558,6041278.419890748
560,6041001.533521055
562,6041392.742767028
564,6041778.951840923
566,6041558.441289729
568,6041101.021349022
570,6041667.604961429
572,6041269.394412951
574,6041583.119587428
576,6041396.220847241
578,6041403.622610972
580,6041546.530530555
582,6041726.485066096
584,6042034.504738572
586,6041752.384016142
588,6041832.682639174
590,6041280.913898683
592,6041393.672830952
594,6041691.115852492
596,6041524.304956971
598,6041681.245402303
600,6041413.705076152
602,6041284.784449116
604,6041453.92581772
606,6041539.9283006275
608,6041317.356633891
610,6041054.929496416
612,6041015.890308222
614,6041179.970501689
616,6041261.090415876
618,6041106.480081995
620,6041736.478183459
622,6042749.450842149
624,6042866.942718155
626,6042744.353011155
628,6042209.392890366
630,6041086.259168556
632,6040143.154925759
634,6040795.756268684
636,6041844.241755937
638,6040991.69609656
640,6040929.456113611
642,6041563.945033544
644,6040831.325319874
646,6039683.78526178
648,6039274.9722556425
650,6040070.4356420785
652,6041250.535854131
654,6042007.524723472
656,6041864.98802722
658,6040767.300892263
660,6039475.750528185
662,6039493.550764232
664,6041121.871584476
666,6043219.871262957
668,6042859.667552472
670,6041356.518895607
672,6042465.753523392
674,6042030.50991803
676,6038998.074917527
678,6041774.866282007
680,6043892.986690914
682,6041883.900776798
684,6041586.024857448
686,6041449.279130129
688,6040955.888116791
690,6041315.878845586
692,6041350.308162498
694,6041850.281904865
696,6041497.36767262
698,6041199.302168845
700,6041453.646278689
702,6041828.693192879
704,6040860.42770877
706,6041675.622792104
708,6041571.681644926
710,6041346.454989626
712,6041546.234560798
714,6041858.824615336
716,6041142.5820534965
718,6041286.403162461
720,6041703.1207177285
722,6041807.585318082
724,6041329.8607438
726,6041296.890614847
728,6041527.288726995
730,6041723.792105585
732,6041192.330811199
734,6041150.1016538385
736,6041704.398114255
738,6041255.137810724
740,6041344.973276121
742,6041402.044472554
744,6041509.896928869
746,6041611.23472158
748,6041281.529689905
750,6041392.455248062
752,6040981.1977447625
754,6041295.389267499
756,6041239.4416478425
758,6041271.659960353
760,6041533.037164191
762,6033170.558480699
764,5997309.196911797
766,5919816.184365741
768,5789128.623488824
770,5591227.92157777
772,5331562.926099856
774,5030824.995786329
776,4699258.250554136
778,4346757.545140255
780,3987299.429810042
782,3631624.3336451664
784,3286378.269654552
786,2964560.482130975
788,2677357.907088312
790,2431812.978824052
792,2227005.630354121
794,2056991.6675400746
796,1912122.286436368
798,1783069.2196949078
800,1663500.214270693
802,1548744.6415391257
804,1440089.3704584274
806,1338355.7413583586
808,1246002.4351940232
810,1164641.9993123675
812,1094313.8934356393
814,1033315.1507154639
816,979276.3012057306
818,928884.3489745458
820,880151.1850921786
822,831067.2044299131
824,781134.7456778135
826,731197.4373941015
828,682133.9307999852
830,635157.065687494
832,590767.9318637582
834,549817.9262336656
836,511926.9827578021
838,476508.58827418834
840,442988.8091633684
842,410512.7161371145
844,378885.83903410326
846,347759.8550145639
848,317145.038704723
850,286997.5341464601
852,257814.11993689087
854,229635.74166079867
856,202883.51438950063
858,177548.2583061767
860,153963.78261275878
862,132580.8515415665
864,113288.53811543316
866,96239.40874515912
868,81413.00428997858
870,68826.20859127876
872,58133.754868965356
874,49160.33286656182
876,41666.7751322839
878,35497.06635140222
880,30295.018445045593
882,25695.68578759554
884,21591.37521759164
886,17852.922836174053
888,14389.809163301048
890,11160.697668091325
892,8122.388938503005
894,5540.658797514908
896,3560.8201047046186
898,2067.8082667675035
900,1036.1379326991748
902,389.7262820249188
904,91.05201843704549
906,33.85408597934234
908,10.175341117526877
910,0.4798427012002451
912,-3.482973111878331
914,2.393407046365594
916,-5.54246237681494
918,-0.29287613119402345
920,-2.3379566926154904
922,4.289920058427215
924,0.9442159283387628
926,-2.7336637591896857
928,1.0006701908683229
930,-1.3057717257606596
932,1.5404292547943992
934,4.001179039549514
936,-1.414773894536123
938,3.248233771030033
940,0.4896997775772239
942,3.269850699677664
944,0.8757233738836303
946,1.835094323646329
948,-1.5911823412967454
950,0.22756291881490442
952,1.4645588048001232
954,3.043621082643513
956,0.027056986644400358
958,-0.10659459427895207
960,-0.7023202398106899
962,-2.0064684457895754
964,-3.0020412361544704
966,-2.2327748367148637
968,-2.2451702637504916
970,3.087313082970052
972,-1.474238603491238
974,-1.3750943045639343
976,0.09099228775895851
978,-4.359327552662422
980,0.17173412192045567
982,0.5883557203648353
984,-0.6237451035931326
986,0.24693956783995888
988,-1.1733774690472267
990,1.089032408027303
992,0.5823660453244227
994,0.22070109661222787
996,-2.4283186811864717
998,-1.410528741235163
