wave,flux
336,10480.209796283056
338,14690.617914210126
340,19574.55270256362
342,25185.102166709694
344,31591.720035528935
346,38900.443134165456
348,47564.516208677866
350,57919.213412639845
352,69818.01247358376
354,83646.85033834778
356,99122.73185758728
358,114774.54822083414
360,130705.51868080664
362,147486.94189569383
364,166038.46847680223
366,189633.120016009
368,223799.64232548172
370,280842.7764314094
372,390863.2010824862
374,600966.8662380781
376,946009.2470432377
378,1403733.8347338433
380,1895547.4524127473
382,2344877.108768154
384,2729345.8775834055
386,3071859.6471127234
388,3397481.4681925206
390,3712607.645469098
392,4011507.3292300636
394,4289699.46385893
396,4546271.27574766
398,4784267.473558435
400,5007982.188909961
402,5218671.761271813
404,5415442.251297161
406,5594554.228394831
408,5749661.489977753
410,5873517.411246685
412,5958957.232402169
414,6006768.416533363
416,6027719.1477948865
418,6035425.41343881
420,6038395.742596196
422,6040148.838318923
424,6041277.763355333
426,6041454.183242567
428,6041192.699391894
430,6041591.628304038
432,6041792.129627042
434,6041010.162979604
436,6041457.940582748
438,6041520.3105750475
440,6041511.039896537
442,6041002.625499347
444,6041277.83726778
446,6041067.598059096
448,6041438.133856051
450,6041226.151598764
452,6041267.054820053
454,6041610.78467189
456,6041548.620443634
458,6041535.605268063
460,6041398.173065839
462,6041486.505283384
464,6041496.859152125
466,6041577.17932319
468,6041265.597804109
470,6041490.68230678
472,6041450.099066555
474,6041138.947161888
476,6041314.9298575185
478,6041705.665066013
480,6041067.5870379
482,6041153.368924914
484,6041836.740867568
486,6041396.468551251
488,6041299.547833041
490,6041977.318359138
492,6041296.662572364
494,6041508.709243974
496,6041368.388838636
498,6041466.936440523
500,6041739.924092579
502,6041393.480192117
504,6041729.273851183
506,6041475.306815342
508,6041274.329573784
510,6041387.729860403
512,6041317.793542157
514,6041355.06342315
516,6041073.59882756
518,6041371.910034323
520,6041137.806566612
522,6041636.782262278
524,6041625.60967366
526,6041049.059260893
528,6041523.128146342
530,6041550.977341197
532,6041554.023645438
534,6041666.727070524
536,6041144.671082229
538,6041685.450903622
540,6041441.5480708545
542,6041513.48981584
544,6041650.973525943
546,6041924.928340977
548,6041086.335122635
550,6041303.756063422
552,6041307.870214825
554,6041385.879615457
556,6041447.0613294365
558,6041453.256888037
560,6041488.291396648
562,6041563.690222732
564,6041624.02728103
566,6041842.022835785
568,6041272.106725273
570,6041720.332533907
572,6041439.076008857
574,6041350.026419611
576,6041162.116034538
578,6041208.448538344
580,6041530.079546368
582,6041350.650965551
584,6040980.98995992
586,6041283.388601243
588,6041190.56354336
590,6041488.567247138
592,6041517.866106447
594,6041253.272913303
596,6041244.26815132
598,6041419.830395233
600,6041531.950902119
602,6041474.101002093
604,6041604.23508354
606,6041691.749733949
608,6041241.264881888
610,6041264.339264146
612,6041332.907679413
614,6041327.638103228
616,6041616.280519969
618,6041734.383946326
620,6040753.329562
622,6040169.4756732965
624,6041476.730998002
626,6040964.417552211
628,6040029.724840274
630,6040742.703379988
632,6041982.083568636
634,6042399.8061739355
636,6041738.428533115
638,6040884.991345782
640,6040955.668242521
642,6041599.437541124
644,6041563.475649162
646,6040515.232463937
648,6039795.366340584
650,6040697.024766309
652,6040905.308596347
654,6040353.76181976
656,6040956.240647607
658,6041751.387687452
660,6041888.813475121
662,6041676.43840049
664,6041495.299320874
666,6041444.502045375
668,6041108.025890887
670,6041563.7618755195
672,6041267.206251948
674,6041163.483838298
676,6041536.128915396
678,6041346.243453458
680,6041150.289956288
682,6041410.314774397
684,6041560.064687422
686,6041447.9187860545
688,6040955.81893969
690,6041315.875338955
692,6041350.307975556
694,6041850.281893436
696,6041497.367671758
698,6041199.302168769
700,6041453.64627868
702,6041828.693192877
704,6040860.42770877
706,6041675.622792104
708,6041571.681644926
710,6041346.454989626
712,6041546.234560798
714,6041858.824615336
716,6041142.5820534965
718,6041286.403162461
720,6041703.1207177285
722,6041807.585318082
724,6041329.8607438
726,6041296.890614847
728,6041527.288726995
730,6041723.792105585
732,6041192.330811199
734,6041150.1016538385
736,6041704.398114255
738,6041255.137810724
740,6041344.973276121
742,6041402.044472554
744,6041509.896928869
746,6041611.23472158
748,6041281.529689905
750,6041392.455248062
752,6040981.1977447625
754,6041295.389267499
756,6041239.4416478425
758,6041271.659960353
760,6041533.037164191
762,6033170.558480699
764,5997309.196911797
766,5919816.184365741
768,5789128.623488824
770,5591227.92157777
772,5331562.926099856
774,5030824.995786329
776,4699258.250554136
778,4346757.545140255
780,3987299.429810042
782,3631624.3336451664
784,3286378.269654552
786,2964560.482130975
788,2677357.907088312
790,2431812.978824052
792,2227005.630354121
794,2056991.6675400746
796,1912122.286436368
798,1783069.2196949078
800,1663500.214270693
802,1548744.6415391257
804,1440089.3704584274
806,1338355.7413583586
808,1246002.4351940232
810,1164641.9993123675
812,1094313.8934356393
814,1033315.1507154639
816,979276.3012057306
818,928884.3489745458
820,880151.1850921786
822,831067.2044299131
824,781134.7456778135
826,731197.4373941015
828,682133.9307999852
830,635157.065687494
832,590767.9318637582
834,549817.9262336656
836,511926.9827578021
838,476508.58827418834
840,442988.8091633684
842,410512.7161371145
844,378885.83903410326
846,347759.8550145639
848,317145.038704723
850,286997.5341464601
852,257814.11993689087
854,229635.74166079867
856,202883.51438950063
858,177548.2583061767
860,153963.78261275878
862,132580.8515415665
864,113288.53811543316
866,96239.40874515912
868,81413.00428997858
870,68826.20859127876
872,58133.754868965356
874,49160.33286656182
876,41666.7751322839
878,35497.06635140222
880,30295.018445045593
882,25695.68578759554
884,21591.37521759164
886,17852.922836174053
888,14389.809163301048
890,11160.697668091325
892,8122.388938503005
894,5540.658797514908
896,3560.8201047046186
898,2067.8082667675035
900,1036.1379326991748
902,389.7262820249188
904,91.05201843704549
906,33.85408597934234
908,10.175341117526877
910,0.4798427012002451
912,-3.482973111878331
914,2.393407046365594
916,-5.54246237681494
918,-0.29287613119402345
920,-2.3379566926154904
922,4.289920058427215
924,0.9442159283387628
926,-2.7336637591896857
928,1.0006701908683229
930,-1.3057717257606596
932,1.5404292547943992
934,4.001179039549514
936,-1.414773894536123
938,3.248233771030033
940,0.4896997775772239
942,3.269850699677664
944,0.8757233738836303
946,1.835094323646329
948,-1.5911823412967454
950,0.22756291881490442
952,1.4645588048001232
954,3.043621082643513
956,0.027056986644400358
958,-0.10659459427895207
960,-0.7023202398106899
962,-2.0064684457895754
964,-3.0020412361544704
966,-2.2327748367148637
968,-2.2451702637504916
970,3.087313082970052
972,-1.474238603491238
974,-1.3750943045639343
976,0.09099228775895851
978,-4.359327552662422
980,0.17173412192045567
982,0.5883557203648353
984,-0.6237451035931326
986,0.24693956783995888
988,-1.1733774690472267
990,1.089032408027303
992,0.5823660453244227
994,0.22070109661222787
996,-2.4283186811864717
998,-1.410528741235163
