wave,flux
336,1.2339997048556204
338,-1.427660887943646
340,-0.3581511183834118
342,1.9594273508534321
344,-1.7874126843752312
346,0.8950606946059282
348,-0.38505590689524244
350,7.7039839552973906
352,-1.8711594945758643
354,-1.604658374239576
356,2.6455666796886192
358,12.497393130797782
360,364.53527737132555
362,1809.295215925192
364,4626.331081200054
366,8244.807479611085
368,12185.608183346729
370,16400.808961479946
372,20950.083932309855
374,25952.98114714188
376,31503.767472133102
378,37662.41110871514
380,44485.5471539507
382,52359.33000090188
384,61923.90443013181
386,73474.22539219154
388,86658.33631692745
390,100994.43071570109
392,117010.5716324207
394,134998.74385355096
396,154303.32007206258
398,173072.63183082524
400,190853.6354635343
402,208014.52768435562
404,225653.15634376125
406,244566.8195381496
408,265811.3263481457
410,290645.36738776986
412,319895.26904194744
414,353900.4180106225
416,392865.19932956493
418,439633.9602086727
420,501497.46062315244
422,593366.1385118607
424,739957.098439175
426,971411.8687885227
428,1318133.1507336195
430,1794217.5088658012
432,2385601.799874744
434,3048380.1473734174
436,3719800.062260591
438,4339859.3825154975
440,4867942.548147163
442,5285587.886093268
444,5593020.354294622
446,5802416.203462709
448,5931217.971907902
450,5999181.8667946085
452,6030307.645739339
454,6040433.307834541
456,6041393.667388886
458,6041580.277103109
460,6041758.543353462
462,6041213.644127915
464,6041526.195904916
466,6041652.04553628
468,6041385.520168557
470,6041497.079650807
472,6041512.602080475
474,6041059.797768917
476,6041551.696078242
478,6041146.306614906
480,6041586.87921149
482,6041379.41579606
484,6041863.951426586
486,6041465.830852086
488,6041332.773105732
490,6041309.203259513
492,6041136.215180848
494,6041276.9988416955
496,6041591.113258672
498,6041489.606317597
500,6041451.354578048
502,6041373.0700868275
504,6041348.099267362
506,6041457.30755532
508,6041177.537992221
510,6041608.0241497215
512,6041056.658252609
514,6041393.513830269
516,6041298.741175328
518,6041442.498468102
520,6041345.097049678
522,6041289.663483611
524,6041307.125540609
526,6041629.710862594
528,6041658.312650192
530,6041878.126556702
532,6040774.754946194
534,6041644.704379675
536,6041418.672236858
538,6041320.853404639
540,6041141.292631745
542,6041436.240595713
544,6041606.950266861
546,6041545.283074338
548,6041347.469064793
550,6041260.593366923
552,6041453.864402812
554,6041228.211359201
556,6041217.216633319
558,6041076.32631464
560,6041209.018276037
562,6041641.187197375
564,6041451.975469046
566,6041403.781632397
568,6041154.10109466
570,6041504.985055777
572,6041630.807412108
574,6041365.262693152
576,6041240.106816605
578,6041170.722569621
580,6041479.053041195
582,6041648.911562606
584,6041542.753111394
586,6041974.608980004
588,6041456.364794858
590,6041136.589990575
592,6041522.03425825
594,6041655.287808518
596,6041303.14204621
598,6041389.206245217
600,6041649.745169939
602,6041332.39880318
604,6040963.592194393
606,6041131.984868718
608,6041463.533856184
610,6041457.340639191
612,6041181.291487733
614,6040938.228679097
616,6041138.065666441
618,6041888.559686115
620,6040726.345736854
622,6039488.327369498
624,6041315.324865251
626,6041388.601702853
628,6040778.981619624
630,6041333.131930385
632,6041437.254492338
634,6041170.229545082
636,6041074.67648534
638,6041243.503254294
640,6040781.706933487
642,6040789.158670337
644,6042669.255685509
646,6043840.743598289
648,6043270.735975946
650,6041633.849009415
652,6039571.332313723
654,6039325.403812738
656,6041007.630455762
658,6041219.755206997
660,6042462.764767576
662,6041335.252597206
664,6042005.6881602965
666,6041479.999101373
668,6041109.670657939
670,6041563.803221416
672,6041267.205095362
674,6041163.483604261
676,6041536.128894799
678,6041346.243452008
680,6041150.289956198
682,6041410.31477439
684,6041560.0646874225
686,6041447.9187860545
688,6040955.81893969
690,6041315.875338955
692,6041350.307975556
694,6041850.281893436
696,6041497.367671758
698,6041199.302168769
700,6041453.64627868
702,6041828.693192877
704,6040860.42770877
706,6041675.622792104
708,6041571.681644926
710,6041346.454989626
712,6041546.234560798
714,6041858.824615336
716,6041142.5820534965
718,6041286.403162461
720,6041703.1207177285
722,6041807.585318082
724,6041329.8607438
726,6041296.890614847
728,6041527.288726995
730,6041723.792105585
732,6041192.330811199
734,6041150.1016538385
736,6041704.398114255
738,6041255.137810724
740,6041344.973276121
742,6041402.044472554
744,6041509.896928869
746,6041611.23472158
748,6041281.529689905
750,6041392.455248062
752,6040981.1977447625
754,6041295.389267499
756,6041239.4416478425
758,6041271.659960353
760,6041533.037164191
762,6033170.558480699
764,5997309.196911797
766,5919816.184365741
768,5789128.623488824
770,5591227.92157777
772,5331562.926099856
774,5030824.995786329
776,4699258.250554136
778,4346757.545140255
780,3987299.429810042
782,3631624.3336451664
784,3286378.269654552
786,2964560.482130975
788,2677357.907088312
790,2431812.978824052
792,2227005.630354121
794,2056991.6675400746
796,1912122.286436368
798,1783069.2196949078
800,1663500.214270693
802,1548744.6415391257
804,1440089.3704584274
806,1338355.7413583586
808,1246002.4351940232
810,1164641.9993123675
812,1094313.8934356393
814,1033315.1507154639
816,979276.3012057306
818,928884.3489745458
820,880151.1850921786
822,831067.2044299131
824,781134.7456778135
826,731197.4373941015
828,682133.9307999852
830,635157.065687494
832,590767.9318637582
834,549817.9262336656
836,511926.9827578021
838,476508.58827418834
840,442988.8091633684
842,410512.7161371145
844,378885.83903410326
846,347759.8550145639
848,317145.038704723
850,286997.5341464601
852,257814.11993689087
854,229635.74166079867
856,202883.51438950063
858,177548.2583061767
860,153963.78261275878
862,132580.8515415665
864,113288.53811543316
866,96239.40874515912
868,81413.00428997858
870,68826.20859127876
872,58133.754868965356
874,49160.33286656182
876,41666.7751322839
878,35497.06635140222
880,30295.018445045593
882,25695.68578759554
884,21591.37521759164
886,17852.922836174053
888,14389.809163301048
890,11160.697668091325
892,8122.388938503005
894,5540.658797514908
896,3560.8201047046186
898,2067.8082667675035
900,1036.1379326991748
902,389.7262820249188
904,91.05201843704549
906,33.85408597934234
908,10.175341117526877
910,0.4798427012002451
912,-3.482973111878331
914,2.393407046365594
916,-5.54246237681494
918,-0.29287613119402345
920,-2.3379566926154904
922,4.289920058427215
924,0.9442159283387628
926,-2.7336637591896857
928,1.0006701908683229
930,-1.3057717257606596
932,1.5404292547943992
934,4.001179039549514
936,-1.414773894536123
938,3.248233771030033
940,0.4896997775772239
942,3.269850699677664
944,0.8757233738836303
946,1.835094323646329
948,-1.5911823412967454
950,0.22756291881490442
952,1.4645588048001232
954,3.043621082643513
956,0.027056986644400358
958,-0.10659459427895207
960,-0.7023202398106899
962,-2.0064684457895754
964,-3.0020412361544704
966,-2.2327748367148637
968,-2.2451702637504916
970,3.087313082970052
972,-1.474238603491238
974,-1.3750943045639343
976,0.09099228775895851
978,-4.359327552662422
980,0.17173412192045567
982,0.5883557203648353
984,-0.6237451035931326
986,0.24693956783995888
988,-1.1733774690472267
990,1.089032408027303
992,0.5823660453244227
994,0.22070109661222787
996,-2.4283186811864717
998,-1.410528741235163
