wave,flux
336,129.64633152896891
338,241.4440322572191
340,436.0494473070758
342,774.135813692758
344,1246.6622137010118
346,1874.9517313956355
348,2658.293442319804
350,3605.2834286140637
352,4727.217922384933
354,6097.498198590151
356,7714.028740675631
358,9627.765785693471
360,11959.27052257316
362,14798.131973182228
364,18156.33214234163
366,22080.18320697453
368,26752.463504953757
370,32323.830861238675
372,38873.914231123184
374,46632.36501729314
376,56220.97369814721
378,68400.57827193654
380,83769.13719237213
382,102682.43558330643
384,125607.39672930543
386,153427.54700112808
388,187364.20571072554
390,230025.79627332764
392,284962.7843508946
394,353998.9595423309
396,435783.26499546715
398,526154.8676732061
400,621225.3755258624
402,718797.2333080499
404,818229.4425237636
406,920612.1925466312
408,1027833.2172835681
410,1141022.2349939016
412,1260224.4405234666
414,1383588.803070347
416,1510154.0250459753
418,1640481.2342974169
420,1777569.1507234776
422,1926105.3812649047
424,2090606.558310207
426,2274547.996985616
428,2478243.188716253
430,2698254.67433294
432,2929459.0703451815
434,3166442.302093314
436,3409009.23127336
438,3661345.2290429533
440,3928594.0971805607
442,4217647.410150799
444,4528395.6630885145
446,4855069.993583027
448,5175195.652579644
450,5464570.942097146
452,5701938.701881277
454,5868953.093212263
456,5969311.785186029
458,6020207.3073321525
460,6038909.628052214
462,6041633.951063211
464,6041381.588337753
466,6041693.187835672
468,6041839.539598529
470,6041609.940771737
472,6041531.559515899
474,6041506.269618832
476,6041496.409862956
478,6041260.019414926
480,6041219.297831901
482,6041425.08552854
484,6041338.452877257
486,6041494.679342879
488,6041371.451191174
490,6041578.617142215
492,6041028.733857491
494,6041885.555753913
496,6041064.121697095
498,6041357.562903776
500,6041518.209902021
502,6041686.918594627
504,6041669.665992771
506,6041537.897053036
508,6041307.307001215
510,6041053.4525737045
512,6041229.160790366
514,6041223.983992006
516,6041213.7422225885
518,6041542.499014173
520,6041587.543971289
522,6041659.289015304
524,6041441.2109098295
526,6041263.3540054355
528,6041026.016217167
530,6041695.498185957
532,6041082.510053047
534,6041475.267672087
536,6041060.36216587
538,6041395.032368998
540,6041338.130256997
542,6041292.709015117
544,6041299.64109195
546,6041510.610266596
548,6041355.4314381825
550,6041878.5003705025
552,6041717.609419268
554,6041197.504634043
556,6041248.517064119
558,6041612.964456858
560,6041593.772622004
562,6041009.0322338585
564,6041236.7577696415
566,6041409.272568172
568,6041199.339499505
570,6041136.045290651
572,6041293.1201393325
574,6041257.173753451
576,6041414.128846832
578,6041145.2270569345
580,6041074.282286834
582,6041377.026816656
584,6041291.501505837
586,6041151.305415806
588,6041311.908875203
590,6041667.576094236
592,6041623.094669112
594,6041365.970208729
596,6041357.724197155
598,6041457.2404236635
600,6041382.441023807
602,6041494.553120716
604,6041782.458330628
606,6041911.68800325
608,6041670.9386695
610,6041228.996665784
612,6041314.360569091
614,6041443.769232796
616,6041269.9852757575
618,6042314.367474097
620,6041150.62282377
622,6039468.293268293
624,6041420.421651033
626,6042002.892586407
628,6041973.5297730705
630,6042660.915041262
632,6041950.0876042815
634,6040994.862954953
636,6040909.923777862
638,6041552.382711383
640,6042064.294469195
642,6041658.439871842
644,6040548.11546725
646,6041094.660172751
648,6041908.75922242
650,6040372.668678003
652,6039775.582454888
654,6040808.802125964
656,6041272.996286365
658,6041495.95835559
660,6041550.81743094
662,6041377.49598332
664,6041484.489237759
666,6041443.750214426
668,6041107.9910545675
670,6041563.76099981
672,6041267.206276444
674,6041163.483843256
676,6041536.128915831
678,6041346.24345349
680,6041150.289956291
682,6041410.314774397
684,6041560.064687422
686,6041447.9187860545
688,6040955.81893969
690,6041315.875338955
692,6041350.307975556
694,6041850.281893436
696,6041497.367671758
698,6041199.302168769
700,6041453.64627868
702,6041828.693192877
704,6040860.42770877
706,6041675.622792104
708,6041571.681644926
710,6041346.454989626
712,6041546.234560798
714,6041858.824615336
716,6041142.5820534965
718,6041286.403162461
720,6041703.1207177285
722,6041807.585318082
724,6041329.8607438
726,6041296.890614847
728,6041527.288726995
730,6041723.792105585
732,6041192.330811199
734,6041150.1016538385
736,6041704.398114255
738,6041255.137810724
740,6041344.973276121
742,6041402.044472554
744,6041509.896928869
746,6041611.23472158
748,6041281.529689905
750,6041392.455248062
752,6040981.1977447625
754,6041295.389267499
756,6041239.4416478425
758,6041271.659960353
760,6041533.037164191
762,6033170.558480699
764,5997309.196911797
766,5919816.184365741
768,5789128.623488824
770,5591227.92157777
772,5331562.926099856
774,5030824.995786329
776,4699258.250554136
778,4346757.545140255
780,3987299.429810042
782,3631624.3336451664
784,3286378.269654552
786,2964560.482130975
788,2677357.907088312
790,2431812.978824052
792,2227005.630354121
794,2056991.6675400746
796,1912122.286436368
798,1783069.2196949078
800,1663500.214270693
802,1548744.6415391257
804,1440089.3704584274
806,1338355.7413583586
808,1246002.4351940232
810,1164641.9993123675
812,1094313.8934356393
814,1033315.1507154639
816,979276.3012057306
818,928884.3489745458
820,880151.1850921786
822,831067.2044299131
824,781134.7456778135
826,731197.4373941015
828,682133.9307999852
830,635157.065687494
832,590767.9318637582
834,549817.9262336656
836,511926.9827578021
838,476508.58827418834
840,442988.8091633684
842,410512.7161371145
844,378885.83903410326
846,347759.8550145639
848,317145.038704723
850,286997.5341464601
852,257814.11993689087
854,229635.74166079867
856,202883.51438950063
858,177548.2583061767
860,153963.78261275878
862,132580.8515415665
864,113288.53811543316
866,96239.40874515912
868,81413.00428997858
870,68826.20859127876
872,58133.754868965356
874,49160.33286656182
876,41666.7751322839
878,35497.06635140222
880,30295.018445045593
882,25695.68578759554
884,21591.37521759164
886,17852.922836174053
888,14389.809163301048
890,11160.697668091325
892,8122.388938503005
894,5540.658797514908
896,3560.8201047046186
898,2067.8082667675035
900,1036.1379326991748
902,389.7262820249188
904,91.05201843704549
906,33.85408597934234
908,10.175341117526877
910,0.4798427012002451
912,-3.482973111878331
914,2.393407046365594
916,-5.54246237681494
918,-0.29287613119402345
920,-2.3379566926154904
922,4.289920058427215
924,0.9442159283387628
926,-2.7336637591896857
928,1.0006701908683229
930,-1.3057717257606596
932,1.5404292547943992
934,4.001179039549514
936,-1.414773894536123
938,3.248233771030033
940,0.4896997775772239
942,3.269850699677664
944,0.8757233738836303
946,1.835094323646329
948,-1.5911823412967454
950,0.22756291881490442
952,1.4645588048001232
954,3.043621082643513
956,0.027056986644400358
958,-0.10659459427895207
960,-0.7023202398106899
962,-2.0064684457895754
964,-3.0020412361544704
966,-2.2327748367148637
968,-2.2451702637504916
970,3.087313082970052
972,-1.474238603491238
974,-1.3750943045639343
976,0.09099228775895851
978,-4.359327552662422
980,0.17173412192045567
982,0.5883557203648353
984,-0.6237451035931326
986,0.24693956783995888
988,-1.1733774690472267
990,1.089032408027303
992,0.5823660453244227
994,0.22070109661222787
996,-2.4283186811864717
998,-1.410528741235163
