wave,flux
336,2623.5974084782365
338,3603.205181174465
340,4756.923959971582
342,5929.621929373961
344,7235.645392765861
346,9396.491600891395
348,12768.90418461971
350,16826.102568860468
352,21446.605398004816
354,26486.193414253805
356,31474.900742196867
358,36458.55501931812
360,42121.73604363122
362,48790.220532467356
364,56254.5549945427
366,65092.07106189315
368,76813.09353165611
370,95078.04422958329
372,126628.93297323456
374,181491.3191073478
376,268196.3544864428
378,385825.38631819154
380,520395.4875061053
382,651736.5606224423
384,765882.1220405973
386,859355.2910419159
388,937397.1181355737
390,1010152.9702090664
392,1092131.2502693117
394,1185213.4895289633
396,1285984.0705735974
398,1395158.8712983376
400,1544645.0826028467
402,1770270.6682234877
404,2089226.0444738916
406,2475134.043216928
408,2876327.6085687885
410,3238274.3182379943
412,3522609.4183746045
414,3709307.8429537765
416,3794491.02247779
418,3792138.7277434454
420,3738003.0368192107
422,3688024.284706779
424,3704385.1990177254
426,3831951.9391819895
428,4079546.324004289
430,4411789.902473016
432,4763783.649390556
434,5069627.678713048
436,5285872.22155071
438,5410686.946495025
440,5473379.471124454
442,5518021.964897158
444,5579527.261735162
446,5667834.663796761
448,5774753.912447164
450,5879189.852917834
452,5958438.728105017
454,6008426.932635138
456,6034077.839373349
458,6041107.636300586
460,6041292.333524106
462,6041378.434901892
464,6041041.466794383
466,6041579.673634155
468,6041137.380005586
470,6041335.487968769
472,6041176.842312661
474,6041399.182899965
476,6040908.815700921
478,6041339.63903722
480,6041016.311149098
482,6041729.57971704
484,6041353.825275239
486,6041639.033238232
488,6041698.762622416
490,6041401.600706328
492,6041368.166481598
494,6041136.525620108
496,6041536.106854155
498,6041532.984603349
500,6041499.658293179
502,6041315.794946565
504,6041515.444454576
506,6041281.287118368
508,6041095.9617658425
510,6041303.846072042
512,6041203.223110937
514,6041745.757055969
516,6041614.949303643
518,6041449.537190207
520,6041339.460181341
522,6041520.661066225
524,6040983.092124862
526,6041315.964320395
528,6040985.894879028
530,6040919.7915097615
532,6041421.292614603
534,6041731.766485134
536,6041266.404439148
538,6041035.095719351
540,6040879.400057548
542,6041268.618831836
544,6041082.307011517
546,6041466.314143981
548,6041619.12739072
550,6041062.350299417
552,6041254.234951345
554,6041468.0861740755
556,6040989.633329652
558,6041282.820947352
560,6041175.370239477
562,6041424.263203832
564,6041730.433600722
566,6041200.491971614
568,6041642.573309795
570,6041257.13987597
572,6041727.934425727
574,6041213.945457001
576,6041337.622674042
578,6041869.202588299
580,6041720.253408248
582,6041441.806562817
584,6041411.45109782
586,6041073.706787526
588,6041196.473711288
590,6041628.829463844
592,6041569.059990173
594,6041474.576420479
596,6041521.0044780485
598,6041172.771912673
600,6041323.464623492
602,6041315.071511322
604,6041282.4019303415
606,6041491.405414171
608,6041527.806702196
610,6041248.819829116
612,6041137.6402082825
614,6041397.02218698
616,6041749.178633365
618,6041743.655810996
620,6040545.465579379
622,6040244.209142312
624,6042736.2947013425
626,6043135.182902232
628,6042000.26383647
630,6041366.798271438
632,6040907.006198256
634,6040516.828440175
636,6040407.598285726
638,6041036.635177653
640,6042848.988313372
642,6043264.448771986
644,6040139.7046585595
646,6039054.544196217
648,6040390.783759686
650,6040567.97514704
652,6039514.888735483
654,6038831.434394142
656,6040087.10685142
658,6041130.92070354
660,6040899.303533981
662,6040817.4006378995
664,6041045.987831915
666,6041230.16707354
668,6041285.907426034
670,6041251.715470094
672,6041239.869490078
674,6041166.4967366485
676,6041536.39405927
678,6041346.262138254
680,6041150.291129097
682,6041410.314842538
684,6041560.064691157
686,6041447.91878625
688,6040955.818939698
690,6041315.875338953
692,6041350.307975556
694,6041850.281893436
696,6041497.367671758
698,6041199.302168769
700,6041453.64627868
702,6041828.693192877
704,6040860.42770877
706,6041675.622792104
708,6041571.681644926
710,6041346.454989626
712,6041546.234560798
714,6041858.824615336
716,6041142.5820534965
718,6041286.403162461
720,6041703.1207177285
722,6041807.585318082
724,6041329.8607438
726,6041296.890614847
728,6041527.288726995
730,6041723.792105585
732,6041192.330811199
734,6041150.1016538385
736,6041704.398114255
738,6041255.137810724
740,6041344.973276121
742,6041402.044472554
744,6041509.896928869
746,6041611.23472158
748,6041281.529689905
750,6041392.455248062
752,6040981.1977447625
754,6041295.389267499
756,6041239.4416478425
758,6041271.659960353
760,6041533.037164191
762,6033170.558480699
764,5997309.196911797
766,5919816.184365741
768,5789128.623488824
770,5591227.92157777
772,5331562.926099856
774,5030824.995786329
776,4699258.250554136
778,4346757.545140255
780,3987299.429810042
782,3631624.3336451664
784,3286378.269654552
786,2964560.482130975
788,2677357.907088312
790,2431812.978824052
792,2227005.630354121
794,2056991.6675400746
796,1912122.286436368
798,1783069.2196949078
800,1663500.214270693
802,1548744.6415391257
804,1440089.3704584274
806,1338355.7413583586
808,1246002.4351940232
810,1164641.9993123675
812,1094313.8934356393
814,1033315.1507154639
816,979276.3012057306
818,928884.3489745458
820,880151.1850921786
822,831067.2044299131
824,781134.7456778135
826,731197.4373941015
828,682133.9307999852
830,635157.065687494
832,590767.9318637582
834,549817.9262336656
836,511926.9827578021
838,476508.58827418834
840,442988.8091633684
842,410512.7161371145
844,378885.83903410326
846,347759.8550145639
848,317145.038704723
850,286997.5341464601
852,257814.11993689087
854,229635.74166079867
856,202883.51438950063
858,177548.2583061767
860,153963.78261275878
862,132580.8515415665
864,113288.53811543316
866,96239.40874515912
868,81413.00428997858
870,68826.20859127876
872,58133.754868965356
874,49160.33286656182
876,41666.7751322839
878,35497.06635140222
880,30295.018445045593
882,25695.68578759554
884,21591.37521759164
886,17852.922836174053
888,14389.809163301048
890,11160.697668091325
892,8122.388938503005
894,5540.658797514908
896,3560.8201047046186
898,2067.8082667675035
900,1036.1379326991748
902,389.7262820249188
904,91.05201843704549
906,33.85408597934234
908,10.175341117526877
910,0.4798427012002451
912,-3.482973111878331
914,2.393407046365594
916,-5.54246237681494
918,-0.29287613119402345
920,-2.3379566926154904
922,4.289920058427215
924,0.9442159283387628
926,-2.7336637591896857
928,1.0006701908683229
930,-1.3057717257606596
932,1.5404292547943992
934,4.001179039549514
936,-1.414773894536123
938,3.248233771030033
940,0.4896997775772239
942,3.269850699677664
944,0.8757233738836303
946,1.835094323646329
948,-1.5911823412967454
950,0.22756291881490442
952,1.4645588048001232
954,3.043621082643513
956,0.027056986644400358
958,-0.10659459427895207
960,-0.7023202398106899
962,-2.0064684457895754
964,-3.0020412361544704
966,-2.2327748367148637
968,-2.2451702637504916
970,3.087313082970052
972,-1.474238603491238
974,-1.3750943045639343
976,0.09099228775895851
978,-4.359327552662422
980,0.17173412192045567
982,0.5883557203648353
984,-0.6237451035931326
986,0.24693956783995888
988,-1.1733774690472267
990,1.089032408027303
992,0.5823660453244227
994,0.22070109661222787
996,-2.4283186811864717
998,-1.410528741235163
