wave,flux
336,5.431194316770205
338,2.86322003031885
340,-2.256212573616482
342,-1.0163827097979679
344,2.6666873842780876
346,-4.429219366842467
348,5.1857249597546105
350,5.362520660611044
352,-3.2828349333641316
354,0.440583796633484
356,46.78126730462152
358,604.16576626359
360,2192.7123251165362
362,4685.142816541241
364,7773.715447037235
366,11395.255264066736
368,15536.017590906935
370,20205.414956345583
372,25512.339847558727
374,31623.029785656607
376,38600.04405073596
378,46397.811518291455
380,55142.432953619726
382,65131.27699772434
384,76709.71006384843
386,89763.10117644924
388,103951.51061366394
390,119102.36429508397
392,135400.4801480344
394,152820.75153449038
396,171137.09150985844
398,190031.89246090775
400,209494.20902809023
402,229847.9153097745
404,251529.59432227883
406,275805.203430618
408,304110.9862876808
410,337478.82885451766
412,376661.40961607796
414,423644.6470286
416,485094.6876553947
418,575379.5005615414
420,719432.2827539503
422,946828.9057873456
424,1282633.1524164875
426,1731113.8149281167
428,2269604.990415573
430,2851135.5608490156
432,3424833.2217272497
434,3953526.7916969936
436,4424140.278501793
438,4840956.592465521
440,5202762.095104848
442,5505319.510526184
444,5741489.031385369
446,5898092.473869528
448,5987341.427782503
450,6028541.611471196
452,6040490.5516757695
454,6041513.828177628
456,6042058.554939962
458,6041442.063337211
460,6040927.10814743
462,6041436.073026112
464,6041253.571016441
466,6041477.763838778
468,6041660.497563137
470,6041258.389120828
472,6041534.928198911
474,6041334.855763899
476,6041495.747386207
478,6041787.17527421
480,6041336.257748506
482,6041386.543116112
484,6041629.65295964
486,6041423.383500606
488,6041232.165493526
490,6041615.193579496
492,6041476.091762347
494,6041483.356746055
496,6041140.736526982
498,6041485.025492677
500,6041423.394463023
502,6041373.901473077
504,6041333.859623453
506,6041418.838751815
508,6041737.862680324
510,6041588.638847913
512,6041490.449807581
514,6041143.156325327
516,6041371.431323735
518,6041147.592684674
520,6041322.419129556
522,6041112.771317992
524,6041472.934336633
526,6041081.190892291
528,6041533.476138448
530,6041291.12480366
532,6041638.261423499
534,6041666.856355745
536,6041715.611909828
538,6041411.605545799
540,6041755.090449679
542,6041182.884504648
544,6041352.001464143
546,6041184.674413031
548,6041223.676794129
550,6041024.801056942
552,6041148.694603483
554,6041661.791013614
556,6041597.518682321
558,6040877.768600355
560,6041251.337953997
562,6041319.418807285
564,6041372.884420974
566,6041776.7667989535
568,6041593.707146742
570,6041174.263060314
572,6040888.071880986
574,6041409.849965776
576,6041533.651719293
578,6041127.883376259
580,6041333.94743162
582,6041527.489152185
584,6040979.519983063
586,6041036.069587412
588,6041580.895153442
590,6041569.228269432
592,6041579.324177797
594,6041572.528683118
596,6041355.198793684
598,6041374.833307944
600,6041431.466979002
602,6041555.044197793
604,6041804.851116539
606,6041701.683686656
608,6041093.524622056
610,6041534.804843886
612,6041473.782446803
614,6041123.061002266
616,6041838.750410461
618,6042010.032764366
620,6041295.130564983
622,6041222.20591217
624,6042687.004564529
626,6042631.775170282
628,6042197.82673295
630,6042404.571189992
632,6041519.908164551
634,6041092.052312938
636,6041501.928100772
638,6041510.815970591
640,6041482.030980419
642,6041725.477841618
644,6042170.378992031
646,6042558.070264223
648,6042597.466481453
650,6041997.482466979
652,6041722.227352651
654,6041397.696470173
656,6041151.181316659
658,6041511.428929252
660,6041551.262222703
662,6041377.486710586
664,6041484.487439644
666,6041443.750089368
668,6041107.991048773
670,6041563.760999665
672,6041267.2062764475
674,6041163.483843256
676,6041536.128915831
678,6041346.24345349
680,6041150.289956291
682,6041410.314774397
684,6041560.064687422
686,6041447.9187860545
688,6040955.81893969
690,6041315.875338955
692,6041350.307975556
694,6041850.281893436
696,6041497.367671758
698,6041199.302168769
700,6041453.64627868
702,6041828.693192877
704,6040860.42770877
706,6041675.622792104
708,6041571.681644926
710,6041346.454989626
712,6041546.234560798
714,6041858.824615336
716,6041142.5820534965
718,6041286.403162461
720,6041703.1207177285
722,6041807.585318082
724,6041329.8607438
726,6041296.890614847
728,6041527.288726995
730,6041723.792105585
732,6041192.330811199
734,6041150.1016538385
736,6041704.398114255
738,6041255.137810724
740,6041344.973276121
742,6041402.044472554
744,6041509.896928869
746,6041611.23472158
748,6041281.529689905
750,6041392.455248062
752,6040981.1977447625
754,6041295.389267499
756,6041239.4416478425
758,6041271.659960353
760,6041533.037164191
762,6033170.558480699
764,5997309.196911797
766,5919816.184365741
768,5789128.623488824
770,5591227.92157777
772,5331562.926099856
774,5030824.995786329
776,4699258.250554136
778,4346757.545140255
780,3987299.429810042
782,3631624.3336451664
784,3286378.269654552
786,2964560.482130975
788,2677357.907088312
790,2431812.978824052
792,2227005.630354121
794,2056991.6675400746
796,1912122.286436368
798,1783069.2196949078
800,1663500.214270693
802,1548744.6415391257
804,1440089.3704584274
806,1338355.7413583586
808,1246002.4351940232
810,1164641.9993123675
812,1094313.8934356393
814,1033315.1507154639
816,979276.3012057306
818,928884.3489745458
820,880151.1850921786
822,831067.2044299131
824,781134.7456778135
826,731197.4373941015
828,682133.9307999852
830,635157.065687494
832,590767.9318637582
834,549817.9262336656
836,511926.9827578021
838,476508.58827418834
840,442988.8091633684
842,410512.7161371145
844,378885.83903410326
846,347759.8550145639
848,317145.038704723
850,286997.5341464601
852,257814.11993689087
854,229635.74166079867
856,202883.51438950063
858,177548.2583061767
860,153963.78261275878
862,132580.8515415665
864,113288.53811543316
866,96239.40874515912
868,81413.00428997858
870,68826.20859127876
872,58133.754868965356
874,49160.33286656182
876,41666.7751322839
878,35497.06635140222
880,30295.018445045593
882,25695.68578759554
884,21591.37521759164
886,17852.922836174053
888,14389.809163301048
890,11160.697668091325
892,8122.388938503005
894,5540.658797514908
896,3560.8201047046186
898,2067.8082667675035
900,1036.1379326991748
902,389.7262820249188
904,91.05201843704549
906,33.85408597934234
908,10.175341117526877
910,0.4798427012002451
912,-3.482973111878331
914,2.393407046365594
916,-5.54246237681494
918,-0.29287613119402345
920,-2.3379566926154904
922,4.289920058427215
924,0.9442159283387628
926,-2.7336637591896857
928,1.0006701908683229
930,-1.3057717257606596
932,1.5404292547943992
934,4.001179039549514
936,-1.414773894536123
938,3.248233771030033
940,0.4896997775772239
942,3.269850699677664
944,0.8757233738836303
946,1.835094323646329
948,-1.5911823412967454
950,0.22756291881490442
952,1.4645588048001232
954,3.043621082643513
956,0.027056986644400358
958,-0.10659459427895207
960,-0.7023202398106899
962,-2.0064684457895754
964,-3.0020412361544704
966,-2.2327748367148637
968,-2.2451702637504916
970,3.087313082970052
972,-1.474238603491238
974,-1.3750943045639343
976,0.09099228775895851
978,-4.359327552662422
980,0.17173412192045567
982,0.5883557203648353
984,-0.6237451035931326
986,0.24693956783995888
988,-1.1733774690472267
990,1.089032408027303
992,0.5823660453244227
994,0.22070109661222787
996,-2.4283186811864717
998,-1.410528741235163
