wave,flux
336,2599.9758143594718
338,3717.89393939029
340,5262.494844722309
342,7258.532539401848
344,9416.446834578068
346,11768.640915590313
348,14776.614896471063
350,18304.28384250406
352,22263.733374646683
354,26719.348806696562
356,31540.915145411425
358,36623.31237276948
360,42423.1575907634
362,49410.33952670285
364,57858.813874799016
366,68246.68643485293
368,82049.83376032292
370,104091.53220983442
372,145942.0251801797
374,222596.64856487024
376,337470.0315803226
378,468219.43431760627
380,578642.8484347732
382,649236.3181408927
384,697371.9734084159
386,760512.090491737
388,867620.0444987487
390,1023137.3980908354
392,1216171.417213563
394,1426813.816908389
396,1632498.4813837972
398,1809529.018065863
400,1948412.297722386
402,2053993.4352149654
404,2144235.3826592728
406,2233113.089450177
408,2326107.060177804
410,2421017.8745922605
412,2513825.3955095373
414,2606470.717643052
416,2700917.075464001
418,2799962.5802457873
420,2908491.9880168596
422,3036915.938321753
424,3200467.794868044
426,3411193.9674695656
428,3667585.0315114884
430,3952856.759753692
432,4235831.726257077
434,4489227.506339173
436,4697099.296397253
438,4862638.657064118
440,4997390.198885046
442,5116301.224304747
444,5229780.377191216
446,5347663.611332307
448,5474942.149657249
450,5607144.919492792
452,5737493.589031309
454,5854552.95605965
456,5941826.329760701
458,5998511.831146639
460,6028722.654969717
462,6040099.136503674
464,6041577.133577719
466,6041356.78136457
468,6041375.973820156
470,6041017.386954504
472,6041231.857524937
474,6041486.073309396
476,6042007.465549673
478,6041232.716621915
480,6041321.384016831
482,6041649.055943069
484,6041655.392561812
486,6041286.364394284
488,6041513.417317013
490,6041183.977914581
492,6041162.199535091
494,6041622.453385445
496,6041105.408677617
498,6041309.879278763
500,6041197.032484974
502,6041380.960096352
504,6041259.319326593
506,6041251.243931568
508,6041667.890244552
510,6040948.624608392
512,6041259.348476081
514,6041739.099842262
516,6041620.827459229
518,6041821.087619499
520,6041356.767775682
522,6041283.092938237
524,6041182.897334704
526,6041342.43803212
528,6041314.840174944
530,6041826.244096417
532,6040915.3462323565
534,6041539.912004763
536,6041354.2151254015
538,6041235.708922776
540,6040804.040722512
542,6041342.183177332
544,6041288.379577288
546,6041456.096853828
548,6041483.699205514
550,6041310.775754407
552,6041421.214057392
554,6041500.38116886
556,6041454.997044554
558,6041634.521198209
560,6041744.731140598
562,6041382.479835943
564,6041452.085822638
566,6041476.999862857
568,6041145.093107302
570,6041618.973295871
572,6041254.984928734
574,6041425.524157514
576,6041087.610888894
578,6041241.6821537865
580,6041376.715712523
582,6041417.009502467
584,6041781.284312827
586,6041396.774390772
588,6041431.034683575
590,6041445.726869314
592,6041569.919651271
594,6041423.9500778625
596,6041298.386164019
598,6041820.497686264
600,6041507.464430567
602,6041496.594856241
604,6041491.0383348735
606,6041137.924091775
608,6041161.456073276
610,6041261.674375065
612,6041400.360310071
614,6041689.595960711
616,6041891.608622283
618,6041341.603942212
620,6040813.921087438
622,6041316.337695066
624,6042673.26672943
626,6042695.872195223
628,6040941.74891064
630,6039269.455998308
632,6040216.146673893
634,6041226.785129852
636,6041189.60861183
638,6041361.997968034
640,6041454.862404066
642,6041311.92614971
644,6041154.706262338
646,6041214.78592422
648,6041641.699396651
650,6041400.046171059
652,6041705.723898805
654,6041397.689667097
656,6041151.2169059105
658,6041511.431221799
660,6041551.262288615
662,6041377.48670921
664,6041484.487439378
666,6041443.750089349
668,6041107.991048771
670,6041563.760999665
672,6041267.2062764475
674,6041163.483843256
676,6041536.128915831
678,6041346.24345349
680,6041150.289956291
682,6041410.314774397
684,6041560.064687422
686,6041447.9187860545
688,6040955.81893969
690,6041315.875338955
692,6041350.307975556
694,6041850.281893436
696,6041497.367671758
698,6041199.302168769
700,6041453.64627868
702,6041828.693192877
704,6040860.42770877
706,6041675.622792104
708,6041571.681644926
710,6041346.454989626
712,6041546.234560798
714,6041858.824615336
716,6041142.5820534965
718,6041286.403162461
720,6041703.1207177285
722,6041807.585318082
724,6041329.8607438
726,6041296.890614847
728,6041527.288726995
730,6041723.792105585
732,6041192.330811199
734,6041150.1016538385
736,6041704.398114255
738,6041255.137810724
740,6041344.973276121
742,6041402.044472554
744,6041509.896928869
746,6041611.23472158
748,6041281.529689905
750,6041392.455248062
752,6040981.1977447625
754,6041295.389267499
756,6041239.4416478425
758,6041271.659960353
760,6041533.037164191
762,6033170.558480699
764,5997309.196911797
766,5919816.184365741
768,5789128.623488824
770,5591227.92157777
772,5331562.926099856
774,5030824.995786329
776,4699258.250554136
778,4346757.545140255
780,3987299.429810042
782,3631624.3336451664
784,3286378.269654552
786,2964560.482130975
788,2677357.907088312
790,2431812.978824052
792,2227005.630354121
794,2056991.6675400746
796,1912122.286436368
798,1783069.2196949078
800,1663500.214270693
802,1548744.6415391257
804,1440089.3704584274
806,1338355.7413583586
808,1246002.4351940232
810,1164641.9993123675
812,1094313.8934356393
814,1033315.1507154639
816,979276.3012057306
818,928884.3489745458
820,880151.1850921786
822,831067.2044299131
824,781134.7456778135
826,731197.4373941015
828,682133.9307999852
830,635157.065687494
832,590767.9318637582
834,549817.9262336656
836,511926.9827578021
838,476508.58827418834
840,442988.8091633684
842,410512.7161371145
844,378885.83903410326
846,347759.8550145639
848,317145.038704723
850,286997.5341464601
852,257814.11993689087
854,229635.74166079867
856,202883.51438950063
858,177548.2583061767
860,153963.78261275878
862,132580.8515415665
864,113288.53811543316
866,96239.40874515912
868,81413.00428997858
870,68826.20859127876
872,58133.754868965356
874,49160.33286656182
876,41666.7751322839
878,35497.06635140222
880,30295.018445045593
882,25695.68578759554
884,21591.37521759164
886,17852.922836174053
888,14389.809163301048
890,11160.697668091325
892,8122.388938503005
894,5540.658797514908
896,3560.8201047046186
898,2067.8082667675035
900,1036.1379326991748
902,389.7262820249188
904,91.05201843704549
906,33.85408597934234
908,10.175341117526877
910,0.4798427012002451
912,-3.482973111878331
914,2.393407046365594
916,-5.54246237681494
918,-0.29287613119402345
920,-2.3379566926154904
922,4.289920058427215
924,0.9442159283387628
926,-2.7336637591896857
928,1.0006701908683229
930,-1.3057717257606596
932,1.5404292547943992
934,4.001179039549514
936,-1.414773894536123
938,3.248233771030033
940,0.4896997775772239
942,3.269850699677664
944,0.8757233738836303
946,1.835094323646329
948,-1.5911823412967454
950,0.22756291881490442
952,1.4645588048001232
954,3.043621082643513
956,0.027056986644400358
958,-0.10659459427895207
960,-0.7023202398106899
962,-2.0064684457895754
964,-3.0020412361544704
966,-2.2327748367148637
968,-2.2451702637504916
970,3.087313082970052
972,-1.474238603491238
974,-1.3750943045639343
976,0.09099228775895851
978,-4.359327552662422
980,0.17173412192045567
982,0.5883557203648353
984,-0.6237451035931326
986,0.24693956783995888
988,-1.1733774690472267
990,1.089032408027303
992,0.5823660453244227
994,0.22070109661222787
996,-2.4283186811864717
998,-1.410528741235163
