wave,flux
336,1586.7441270651038
338,2363.930500427636
340,3219.0671572425967
342,4129.906796935815
344,5259.470685837618
346,6740.3214590429725
348,8544.571772737467
350,10816.011666896351
352,13766.270920031497
354,17352.51260579111
356,21455.3878068176
358,25959.42694921318
360,30824.602628747583
362,36059.732864921294
364,41828.74401350416
366,48588.56080593866
368,57031.75710746681
370,68175.25598605293
372,84432.64545036903
374,110559.50961287339
376,153779.18413623254
378,220292.66053896092
380,310755.66403320146
382,418265.35135932296
384,531887.6441473053
386,641097.6211647454
388,737589.1442948149
390,819212.2263308679
392,892904.8662945443
394,964863.0454147325
396,1040401.6981042156
398,1121749.9688791544
400,1218270.7933116227
402,1336007.8988881456
404,1476640.5264529234
406,1636352.3971083458
408,1815688.5604547882
410,2017447.5671398917
412,2236901.640805795
414,2461156.7482122756
416,2673666.7433985444
418,2868638.1996123376
420,3051321.832363775
422,3235710.495151411
424,3432642.7598537747
426,3648899.939120876
428,3883111.0873930375
430,4130247.64231298
432,4384527.6869378565
434,4639668.845175791
436,4894070.885106939
438,5147517.93119829
440,5390979.061307317
442,5611797.488554081
444,5792678.964193687
446,5919483.55941855
448,5994036.086167053
450,6029494.236891754
452,6040573.49801844
454,6041537.320114545
456,6041788.233944035
458,6041323.76885327
460,6041581.221298058
462,6041508.656498466
464,6041259.0171906855
466,6041284.959798878
468,6041300.040417494
470,6041659.913705941
472,6041775.769550617
474,6041399.133538555
476,6041462.398190018
478,6041247.84054396
480,6041434.3981748475
482,6041557.214750716
484,6041330.496045244
486,6041037.23791112
488,6041749.349268932
490,6041322.1639488265
492,6041695.382827791
494,6040998.5760895135
496,6041639.795832528
498,6041339.146450574
500,6041715.271989864
502,6041050.863161682
504,6041344.831907356
506,6041548.503064544
508,6041343.818482776
510,6041660.896513319
512,6041179.616834707
514,6040990.840647831
516,6041399.336301573
518,6041291.554323961
520,6041689.840669267
522,6041540.311067803
524,6041478.809510082
526,6041433.570472876
528,6041642.536443876
530,6041652.741136514
532,6041482.181913704
534,6041558.309731615
536,6041419.0312883435
538,6041072.132226596
540,6041566.217430143
542,6041159.691528619
544,6041445.994625837
546,6041386.332459642
548,6041563.11162926
550,6041579.664562749
552,6041396.82804965
554,6041580.522107954
556,6041204.758598431
558,6041307.51017106
560,6041411.170339184
562,6041696.348918585
564,6041753.287530291
566,6041107.102786012
568,6041377.827746532
570,6041678.457362922
572,6041653.321550334
574,6041552.2467760015
576,6041153.222233484
578,6041316.41098946
580,6041604.393437673
582,6041537.502231515
584,6041606.573998334
586,6041646.105218955
588,6041191.601946321
590,6040958.810986093
592,6041575.281660616
594,6041641.997141467
596,6041161.879671468
598,6041656.057058826
600,6041401.19175595
602,6041117.10267387
604,6041205.235006889
606,6041337.046929587
608,6041345.913158701
610,6041504.19847521
612,6041605.377599778
614,6041544.098053858
616,6041330.443052673
618,6041009.857070916
620,6042434.617081513
622,6043434.436811352
624,6041241.49491472
626,6041348.878324975
628,6041735.412820137
630,6040662.3793407995
632,6041573.411849795
634,6042163.048638516
636,6041486.82809029
638,6041197.926796683
640,6041432.375863703
642,6041661.0835418375
644,6041501.628319536
646,6041657.335993949
648,6041783.003040664
650,6041161.247052278
652,6040856.014197771
654,6041337.072727941
656,6042100.144955981
658,6042162.075477184
660,6041538.007696221
662,6041493.297900634
664,6041983.219472052
666,6042412.442716609
668,6042335.446308194
670,6041533.228005059
672,6041268.060388844
674,6041163.656674205
676,6041536.144125461
678,6041346.244525318
680,6041150.290023569
682,6041410.314778306
684,6041560.064687638
686,6041447.918786066
688,6040955.818939689
690,6041315.875338955
692,6041350.307975556
694,6041850.281893436
696,6041497.367671758
698,6041199.302168769
700,6041453.64627868
702,6041828.693192877
704,6040860.42770877
706,6041675.622792104
708,6041571.681644926
710,6041346.454989626
712,6041546.234560798
714,6041858.824615336
716,6041142.5820534965
718,6041286.403162461
720,6041703.1207177285
722,6041807.585318082
724,6041329.8607438
726,6041296.890614847
728,6041527.288726995
730,6041723.792105585
732,6041192.330811199
734,6041150.1016538385
736,6041704.398114255
738,6041255.137810724
740,6041344.973276121
742,6041402.044472554
744,6041509.896928869
746,6041611.23472158
748,6041281.529689905
750,6041392.455248062
752,6040981.1977447625
754,6041295.389267499
756,6041239.4416478425
758,6041271.659960353
760,6041533.037164191
762,6033170.558480699
764,5997309.196911797
766,5919816.184365741
768,5789128.623488824
770,5591227.92157777
772,5331562.926099856
774,5030824.995786329
776,4699258.250554136
778,4346757.545140255
780,3987299.429810042
782,3631624.3336451664
784,3286378.269654552
786,2964560.482130975
788,2677357.907088312
790,2431812.978824052
792,2227005.630354121
794,2056991.6675400746
796,1912122.286436368
798,1783069.2196949078
800,1663500.214270693
802,1548744.6415391257
804,1440089.3704584274
806,1338355.7413583586
808,1246002.4351940232
810,1164641.9993123675
812,1094313.8934356393
814,1033315.1507154639
816,979276.3012057306
818,928884.3489745458
820,880151.1850921786
822,831067.2044299131
824,781134.7456778135
826,731197.4373941015
828,682133.9307999852
830,635157.065687494
832,590767.9318637582
834,549817.9262336656
836,511926.9827578021
838,476508.58827418834
840,442988.8091633684
842,410512.7161371145
844,378885.83903410326
846,347759.8550145639
848,317145.038704723
850,286997.5341464601
852,257814.11993689087
854,229635.74166079867
856,202883.51438950063
858,177548.2583061767
860,153963.78261275878
862,132580.8515415665
864,113288.53811543316
866,96239.40874515912
868,81413.00428997858
870,68826.20859127876
872,58133.754868965356
874,49160.33286656182
876,41666.7751322839
878,35497.06635140222
880,30295.018445045593
882,25695.68578759554
884,21591.37521759164
886,17852.922836174053
888,14389.809163301048
890,11160.697668091325
892,8122.388938503005
894,5540.658797514908
896,3560.8201047046186
898,2067.8082667675035
900,1036.1379326991748
902,389.7262820249188
904,91.05201843704549
906,33.85408597934234
908,10.175341117526877
910,0.4798427012002451
912,-3.482973111878331
914,2.393407046365594
916,-5.54246237681494
918,-0.29287613119402345
920,-2.3379566926154904
922,4.289920058427215
924,0.9442159283387628
926,-2.7336637591896857
928,1.0006701908683229
930,-1.3057717257606596
932,1.5404292547943992
934,4.001179039549514
936,-1.414773894536123
938,3.248233771030033
940,0.4896997775772239
942,3.269850699677664
944,0.8757233738836303
946,1.835094323646329
948,-1.5911823412967454
950,0.22756291881490442
952,1.4645588048001232
954,3.043621082643513
956,0.027056986644400358
958,-0.10659459427895207
960,-0.7023202398106899
962,-2.0064684457895754
964,-3.0020412361544704
966,-2.2327748367148637
968,-2.2451702637504916
970,3.087313082970052
972,-1.474238603491238
974,-1.3750943045639343
976,0.09099228775895851
978,-4.359327552662422
980,0.17173412192045567
982,0.5883557203648353
984,-0.6237451035931326
986,0.24693956783995888
988,-1.1733774690472267
990,1.089032408027303
992,0.5823660453244227
994,0.22070109661222787
996,-2.4283186811864717
998,-1.410528741235163
