wave,flux
336,4209.463303926906
338,5972.666605318249
340,8345.271705690611
342,11096.941743642368
344,14402.597091856425
346,18161.3510899943
348,22434.855786831424
350,27968.442149688944
352,34753.19857711092
354,42263.243438274905
356,51110.03524909002
358,62076.16982368866
360,75003.42202978992
362,89761.05020610793
364,106837.9323361158
366,126728.0172526383
368,150782.8384399013
370,184007.51943680365
372,236610.14291711967
374,321722.535820377
376,447838.1784475796
378,610017.2094661795
380,787420.86293231
382,953177.2888627659
384,1096127.359161078
386,1230231.935215754
388,1385664.8108875623
390,1583210.349819927
392,1820301.3666212799
394,2072674.7433153142
396,2315612.958875378
398,2536779.3168823393
400,2736703.9147481015
402,2917818.311737191
404,3088275.8652631794
406,3265400.181562618
408,3475071.8037021863
410,3726905.974339029
412,3995415.6911361967
414,4230032.170621043
416,4392335.064871677
418,4487132.404006377
420,4558549.475471711
422,4653004.750467849
424,4788322.809295877
426,4949139.813944569
428,5107898.910520358
430,5248831.408690098
432,5374575.117960857
434,5495698.010397706
436,5618758.909362483
438,5740056.070533392
440,5847831.678669122
442,5933765.020519289
444,5990686.832220525
446,6022300.229999431
448,6036934.68684773
450,6040920.008257649
452,6041345.421396483
454,6041682.739155577
456,6041500.417118828
458,6041141.393060843
460,6041475.492778347
462,6041258.636098213
464,6041294.4436941985
466,6041797.760631591
468,6041599.762102375
470,6041119.775262624
472,6041428.949545628
474,6041286.329227558
476,6041128.671089262
478,6041517.667710015
480,6041735.319665999
482,6041654.29373243
484,6041303.884662323
486,6041057.098971795
488,6041121.419721538
490,6041111.228032008
492,6041440.91397742
494,6041423.758598307
496,6041168.221860934
498,6041246.89557985
500,6041411.191965024
502,6041431.382641373
504,6041368.560686713
506,6041368.067054603
508,6041311.699847518
510,6041486.934604361
512,6041322.307373234
514,6041288.940719642
516,6041511.493735937
518,6041252.0571598895
520,6041137.619169376
522,6041384.978605295
524,6041236.976422848
526,6041456.464942093
528,6041081.436088224
530,6041769.457027054
532,6041435.767706945
534,6041181.878572533
536,6041937.088802422
538,6041522.4066307675
540,6041470.593806109
542,6041257.206096279
544,6041417.230149229
546,6041462.567540753
548,6041475.379981545
550,6041651.515675168
552,6041316.252968903
554,6041114.635536099
556,6041082.601166287
558,6041121.191801587
560,6041302.865171242
562,6041414.278280491
564,6041607.365008284
566,6041638.429872193
568,6041864.563481959
570,6041227.066462535
572,6041390.857027326
574,6041112.11164399
576,6041539.531380232
578,6041552.750371934
580,6041465.22089261
582,6041761.307509719
584,6041652.580878017
586,6041378.0234874645
588,6041339.095898785
590,6041390.699409386
592,6041582.090886401
594,6041393.102131503
596,6041253.911693781
598,6041823.840321386
600,6041226.878876185
602,6040791.815724811
604,6041005.723019598
606,6041294.244306767
608,6041347.538034448
610,6041398.246326933
612,6041787.698914042
614,6041754.355481129
616,6040941.603054017
618,6041248.585629053
620,6041412.430496542
622,6040566.763844998
624,6039367.538236213
626,6038548.88272293
628,6039294.078218316
630,6041038.65195738
632,6041312.814636836
634,6041472.132003255
636,6041876.854688902
638,6041499.241233956
640,6041451.084082131
642,6040901.272091843
644,6038955.250364859
646,6039595.433767431
648,6041422.895097012
650,6040433.676774104
652,6039420.308432008
654,6040192.78975987
656,6041945.699852055
658,6041826.518833036
660,6040513.732086136
662,6042639.083599448
664,6043892.55255184
666,6041068.275004369
668,6042184.2061954215
670,6045291.9291505385
672,6041445.796758464
674,6038081.72388615
676,6041567.63871762
678,6044414.9900198355
680,6043643.998323392
682,6042015.63952044
684,6041181.894070751
686,6041937.297011347
688,6044125.506973232
690,6041788.214543478
692,6041564.4719058955
694,6041884.358654056
696,6041506.010712409
698,6041200.088415662
700,6041453.725355212
702,6041828.701349775
704,6040860.428537437
706,6041675.622873413
708,6041571.681652544
710,6041346.454990302
712,6041546.234560854
714,6041858.824615342
716,6041142.582053497
718,6041286.403162461
720,6041703.1207177285
722,6041807.585318082
724,6041329.8607438
726,6041296.890614847
728,6041527.288726995
730,6041723.792105585
732,6041192.330811199
734,6041150.1016538385
736,6041704.398114255
738,6041255.137810724
740,6041344.973276121
742,6041402.044472554
744,6041509.896928869
746,6041611.23472158
748,6041281.529689905
750,6041392.455248062
752,6040981.1977447625
754,6041295.389267499
756,6041239.4416478425
758,6041271.659960353
760,6041533.037164191
762,6033170.558480699
764,5997309.196911797
766,5919816.184365741
768,5789128.623488824
770,5591227.92157777
772,5331562.926099856
774,5030824.995786329
776,4699258.250554136
778,4346757.545140255
780,3987299.429810042
782,3631624.3336451664
784,3286378.269654552
786,2964560.482130975
788,2677357.907088312
790,2431812.978824052
792,2227005.630354121
794,2056991.6675400746
796,1912122.286436368
798,1783069.2196949078
800,1663500.214270693
802,1548744.6415391257
804,1440089.3704584274
806,1338355.7413583586
808,1246002.4351940232
810,1164641.9993123675
812,1094313.8934356393
814,1033315.1507154639
816,979276.3012057306
818,928884.3489745458
820,880151.1850921786
822,831067.2044299131
824,781134.7456778135
826,731197.4373941015
828,682133.9307999852
830,635157.065687494
832,590767.9318637582
834,549817.9262336656
836,511926.9827578021
838,476508.58827418834
840,442988.8091633684
842,410512.7161371145
844,378885.83903410326
846,347759.8550145639
848,317145.038704723
850,286997.5341464601
852,257814.11993689087
854,229635.74166079867
856,202883.51438950063
858,177548.2583061767
860,153963.78261275878
862,132580.8515415665
864,113288.53811543316
866,96239.40874515912
868,81413.00428997858
870,68826.20859127876
872,58133.754868965356
874,49160.33286656182
876,41666.7751322839
878,35497.06635140222
880,30295.018445045593
882,25695.68578759554
884,21591.37521759164
886,17852.922836174053
888,14389.809163301048
890,11160.697668091325
892,8122.388938503005
894,5540.658797514908
896,3560.8201047046186
898,2067.8082667675035
900,1036.1379326991748
902,389.7262820249188
904,91.05201843704549
906,33.85408597934234
908,10.175341117526877
910,0.4798427012002451
912,-3.482973111878331
914,2.393407046365594
916,-5.54246237681494
918,-0.29287613119402345
920,-2.3379566926154904
922,4.289920058427215
924,0.9442159283387628
926,-2.7336637591896857
928,1.0006701908683229
930,-1.3057717257606596
932,1.5404292547943992
934,4.001179039549514
936,-1.414773894536123
938,3.248233771030033
940,0.4896997775772239
942,3.269850699677664
944,0.8757233738836303
946,1.835094323646329
948,-1.5911823412967454
950,0.22756291881490442
952,1.4645588048001232
954,3.043621082643513
956,0.027056986644400358
958,-0.10659459427895207
960,-0.7023202398106899
962,-2.0064684457895754
964,-3.0020412361544704
966,-2.2327748367148637
968,-2.2451702637504916
970,3.087313082970052
972,-1.474238603491238
974,-1.3750943045639343
976,0.09099228775895851
978,-4.359327552662422
980,0.17173412192045567
982,0.5883557203648353
984,-0.6237451035931326
986,0.24693956783995888
988,-1.1733774690472267
990,1.089032408027303
992,0.5823660453244227
994,0.22070109661222787
996,-2.4283186811864717
998,-1.410528741235163
