wave,flux
336,2.8829303998980684
338,1.7690536235908703
340,28.831361333157226
342,1535.9574516505204
344,8663.265240923229
346,22147.30477581244
348,37062.54618824435
350,51540.21225809691
352,67820.8550127822
354,86470.43389855367
356,106324.57206429166
358,127540.43325276989
360,150692.21318869878
362,176624.5428965774
364,207933.54969615466
366,246547.1613841214
368,291417.2977817451
370,339455.95295208774
372,388666.95749252697
374,436157.004114395
376,480995.1893786388
378,523669.2894298598
380,566393.5525982284
382,613815.4717996126
384,673540.3578154537
386,754171.8174877178
388,866882.1100425588
390,1036600.4761345978
392,1330013.466904756
394,1882293.8641146587
396,2814662.2010891326
398,3979110.139971147
400,5059471.403935779
402,5720812.783363821
404,5997788.048357685
406,6041752.064159761
408,6041321.668627223
410,6041602.3918271875
412,6041403.353873703
414,6041504.265381886
416,6041230.174200063
418,6041614.759794498
420,6041619.840950458
422,6041167.971840745
424,6041458.57333814
426,6041234.492595097
428,6041670.374652823
430,6041271.730320061
432,6041395.578485523
434,6041244.042039965
436,6041294.758449624
438,6041532.771223741
440,6041214.169820388
442,6041374.63423365
444,6041520.758847529
446,6041150.884758348
448,6041524.596090556
450,6041328.977459095
452,6041603.954014875
454,6041977.880001777
456,6041268.754457833
458,6041238.357767391
460,6041685.055986283
462,6041321.920321148
464,6041267.331370291
466,6041200.010631029
468,6041431.032279757
470,6041416.331537308
472,6041538.18877497
474,6041418.823521536
476,6041617.639559253
478,6041274.890239344
480,6040954.289078869
482,6041253.052472371
484,6041420.623862244
486,6041160.178664944
488,6041544.55018433
490,6041754.112960454
492,6041134.903166525
494,6041327.920405752
496,6041388.904739719
498,6041625.225580902
500,6041224.2167453645
502,6040863.758195372
504,6041743.026186527
506,6041629.028824122
508,6041597.225235605
510,6041202.535284702
512,6041513.847884885
514,6041271.459420681
516,6041540.962487559
518,6041479.616767546
520,6041627.819238889
522,6041341.488916606
524,6041608.9851856
526,6041451.965647812
528,6041356.304543746
530,6040938.125346396
532,6041671.6573852915
534,6041112.808577196
536,6041285.028958926
538,6041487.58329085
540,6041389.824298352
542,6041316.960642272
544,6041131.296860677
546,6041247.5649950355
548,6041327.123315249
550,6041312.097095646
552,6041371.495244906
554,6041121.8072079485
556,6041422.646978308
558,6041605.416689635
560,6041282.834312324
562,6041405.078271835
564,6041526.075012622
566,6041174.797451271
568,6041464.524773513
570,6041154.51294592
572,6041581.217316196
574,6041532.495604905
576,6041522.0519612
578,6041555.409952207
580,6041458.108713671
582,6041384.661140114
584,6041324.868474538
586,6041228.306599708
588,6041312.099065849
590,6041523.621983799
592,6041523.633950351
594,6041339.651518748
596,6041160.181827851
598,6041200.459556409
600,6041696.18963192
602,6041178.73065056
604,6040969.8853468755
606,6041416.953735824
608,6040957.598187926
610,6041298.757427696
612,6041654.480211531
614,6041426.825834132
616,6041252.526194468
618,6041639.66312356
620,6041944.41649023
622,6041905.711356507
624,6041589.299015728
626,6040403.043416438
628,6040430.087902168
630,6041994.634589236
632,6041983.322292809
634,6041558.998372148
636,6041888.373613175
638,6042642.718671166
640,6042844.82315889
642,6042323.078589416
644,6041580.004692747
646,6040969.060630584
648,6040992.035274433
650,6041826.653161967
652,6042303.472699025
654,6042912.86254096
656,6044619.839019603
658,6043242.385260565
660,6039571.41048502
662,6040728.91585124
664,6041431.9575174
666,6041440.09668348
668,6041107.821767084
670,6041563.756744289
672,6041267.206395485
674,6041163.4838673435
676,6041536.128917951
678,6041346.243453639
680,6041150.2899563
682,6041410.314774398
684,6041560.0646874225
686,6041447.9187860545
688,6040955.81893969
690,6041315.875338955
692,6041350.307975556
694,6041850.281893436
696,6041497.367671758
698,6041199.302168769
700,6041453.64627868
702,6041828.693192877
704,6040860.42770877
706,6041675.622792104
708,6041571.681644926
710,6041346.454989626
712,6041546.234560798
714,6041858.824615336
716,6041142.5820534965
718,6041286.403162461
720,6041703.1207177285
722,6041807.585318082
724,6041329.8607438
726,6041296.890614847
728,6041527.288726995
730,6041723.792105585
732,6041192.330811199
734,6041150.1016538385
736,6041704.398114255
738,6041255.137810724
740,6041344.973276121
742,6041402.044472554
744,6041509.896928869
746,6041611.23472158
748,6041281.529689905
750,6041392.455248062
752,6040981.1977447625
754,6041295.389267499
756,6041239.4416478425
758,6041271.659960353
760,6041533.037164191
762,6033170.558480699
764,5997309.196911797
766,5919816.184365741
768,5789128.623488824
770,5591227.92157777
772,5331562.926099856
774,5030824.995786329
776,4699258.250554136
778,4346757.545140255
780,3987299.429810042
782,3631624.3336451664
784,3286378.269654552
786,2964560.482130975
788,2677357.907088312
790,2431812.978824052
792,2227005.630354121
794,2056991.6675400746
796,1912122.286436368
798,1783069.2196949078
800,1663500.214270693
802,1548744.6415391257
804,1440089.3704584274
806,1338355.7413583586
808,1246002.4351940232
810,1164641.9993123675
812,1094313.8934356393
814,1033315.1507154639
816,979276.3012057306
818,928884.3489745458
820,880151.1850921786
822,831067.2044299131
824,781134.7456778135
826,731197.4373941015
828,682133.9307999852
830,635157.065687494
832,590767.9318637582
834,549817.9262336656
836,511926.9827578021
838,476508.58827418834
840,442988.8091633684
842,410512.7161371145
844,378885.83903410326
846,347759.8550145639
848,317145.038704723
850,286997.5341464601
852,257814.11993689087
854,229635.74166079867
856,202883.51438950063
858,177548.2583061767
860,153963.78261275878
862,132580.8515415665
864,113288.53811543316
866,96239.40874515912
868,81413.00428997858
870,68826.20859127876
872,58133.754868965356
874,49160.33286656182
876,41666.7751322839
878,35497.06635140222
880,30295.018445045593
882,25695.68578759554
884,21591.37521759164
886,17852.922836174053
888,14389.809163301048
890,11160.697668091325
892,8122.388938503005
894,5540.658797514908
896,3560.8201047046186
898,2067.8082667675035
900,1036.1379326991748
902,389.7262820249188
904,91.05201843704549
906,33.85408597934234
908,10.175341117526877
910,0.4798427012002451
912,-3.482973111878331
914,2.393407046365594
916,-5.54246237681494
918,-0.29287613119402345
920,-2.3379566926154904
922,4.289920058427215
924,0.9442159283387628
926,-2.7336637591896857
928,1.0006701908683229
930,-1.3057717257606596
932,1.5404292547943992
934,4.001179039549514
936,-1.414773894536123
938,3.248233771030033
940,0.4896997775772239
942,3.269850699677664
944,0.8757233738836303
946,1.835094323646329
948,-1.5911823412967454
950,0.22756291881490442
952,1.4645588048001232
954,3.043621082643513
956,0.027056986644400358
958,-0.10659459427895207
960,-0.7023202398106899
962,-2.0064684457895754
964,-3.0020412361544704
966,-2.2327748367148637
968,-2.2451702637504916
970,3.087313082970052
972,-1.474238603491238
974,-1.3750943045639343
976,0.09099228775895851
978,-4.359327552662422
980,0.17173412192045567
982,0.5883557203648353
984,-0.6237451035931326
986,0.24693956783995888
988,-1.1733774690472267
990,1.089032408027303
992,0.5823660453244227
994,0.22070109661222787
996,-2.4283186811864717
998,-1.410528741235163
