wave,flux
336,1.502102308100825
338,-0.35060778350408545
340,-0.8538905621468571
342,1.2189914347578146
344,-0.5589492654068409
346,1.8130175347082078
348,4.840916085278061
350,1.668614883452838
352,-1.0642729903738573
354,-3.562419653755351
356,92.45775448722655
358,575.1199776605126
360,1497.5224983870703
362,2527.2482929608022
364,3657.294385269617
366,5270.634901094934
368,7629.86183342234
370,10779.97228533417
372,14734.334164657104
374,19510.2399623157
376,25202.642093177703
378,31951.260366857172
380,39881.675385084854
382,48907.710307732734
384,59034.683772927085
386,70355.07735284965
388,83093.96101181631
390,97976.04841238372
392,116502.79050748127
394,138477.66099217226
396,162618.0798215527
398,186149.04044684343
400,209079.91486326637
402,232014.91123726455
404,256432.6313100755
406,283137.4491890157
408,312499.8934580327
410,344971.40428673255
412,380720.53260417044
414,421831.1294554184
416,473885.0612707462
418,547830.4449613509
420,657670.9045346314
422,814472.7176207484
424,1018894.7518520594
426,1257094.777759918
428,1505365.360381484
430,1742418.1812954445
432,1962136.1308199486
434,2177196.0438258676
436,2414423.5889429506
438,2702007.337731971
440,3056022.817051963
442,3478107.541611702
444,3955851.7461099303
446,4456927.450429061
448,4935071.898456039
450,5349074.413073272
452,5665987.514079198
454,5868135.57607941
456,5980806.492767077
458,6029448.556111646
460,6041530.041597127
462,6041641.090165222
464,6041153.999469742
466,6041329.072897423
468,6041673.271521158
470,6041073.300910472
472,6041287.173657802
474,6041328.228311953
476,6041340.148340331
478,6041563.8919031
480,6042054.909938888
482,6041207.062661945
484,6041280.219489103
486,6041175.9249849375
488,6041277.205334212
490,6041040.466663821
492,6041927.721494044
494,6041088.604701245
496,6041524.951651059
498,6041471.992587325
500,6041560.9134225
502,6041364.575224032
504,6041271.975246724
506,6041830.111245492
508,6041130.085340188
510,6042020.067305671
512,6041477.175685136
514,6041182.284518603
516,6041519.412326825
518,6041702.708916866
520,6041161.208703332
522,6041478.637138954
524,6041350.904856386
526,6041471.749796102
528,6041708.058586906
530,6041517.74522318
532,6041398.698055081
534,6041259.881485978
536,6041481.465004774
538,6041543.312510605
540,6041331.294279942
542,6041405.293000856
544,6041755.87484067
546,6041782.635441449
548,6041539.962491856
550,6041646.163116829
552,6041454.057296832
554,6041424.450344243
556,6041381.618693417
558,6041218.538550477
560,6041426.358971788
562,6041412.774429514
564,6041472.655614049
566,6041362.928614191
568,6041188.736483635
570,6041408.9313678155
572,6041604.536224506
574,6041596.440974165
576,6041436.842421533
578,6041444.0008703545
580,6041459.194798949
582,6041561.0855291765
584,6041693.608018813
586,6041392.631725928
588,6041383.052137498
590,6041606.777562018
592,6041325.208066038
594,6041109.699061825
596,6041288.109781214
598,6041289.489913356
600,6041653.876081165
602,6041598.263303322
604,6041453.6357169645
606,6041504.771895114
608,6041323.550788369
610,6041387.583456396
612,6041562.401856822
614,6041414.515251278
616,6041056.141256951
618,6041384.169750064
620,6041475.061064143
622,6041676.878657564
624,6042576.600648146
626,6041484.421250522
628,6040610.135358823
630,6041488.608179577
632,6041645.828024231
634,6041612.700679735
636,6041841.289508144
638,6041905.028094211
640,6041812.189380665
642,6041520.838065474
644,6041038.497279956
646,6040814.519518677
648,6040768.229096855
650,6040447.528691649
652,6039736.472914052
654,6039211.641206143
656,6039544.431499475
658,6039479.445423519
660,6039051.923546084
662,6040215.1432518605
664,6042066.22799811
666,6042683.391094736
668,6041076.485175836
670,6041562.969009997
672,6041267.228431112
674,6041163.488326286
676,6041536.129310351
678,6041346.243481291
680,6041150.2899580365
682,6041410.3147744965
684,6041560.064687427
686,6041447.9187860545
688,6040955.81893969
690,6041315.875338955
692,6041350.307975556
694,6041850.281893436
696,6041497.367671758
698,6041199.302168769
700,6041453.64627868
702,6041828.693192877
704,6040860.42770877
706,6041675.622792104
708,6041571.681644926
710,6041346.454989626
712,6041546.234560798
714,6041858.824615336
716,6041142.5820534965
718,6041286.403162461
720,6041703.1207177285
722,6041807.585318082
724,6041329.8607438
726,6041296.890614847
728,6041527.288726995
730,6041723.792105585
732,6041192.330811199
734,6041150.1016538385
736,6041704.398114255
738,6041255.137810724
740,6041344.973276121
742,6041402.044472554
744,6041509.896928869
746,6041611.23472158
748,6041281.529689905
750,6041392.455248062
752,6040981.1977447625
754,6041295.389267499
756,6041239.4416478425
758,6041271.659960353
760,6041533.037164191
762,6033170.558480699
764,5997309.196911797
766,5919816.184365741
768,5789128.623488824
770,5591227.92157777
772,5331562.926099856
774,5030824.995786329
776,4699258.250554136
778,4346757.545140255
780,3987299.429810042
782,3631624.3336451664
784,3286378.269654552
786,2964560.482130975
788,2677357.907088312
790,2431812.978824052
792,2227005.630354121
794,2056991.6675400746
796,1912122.286436368
798,1783069.2196949078
800,1663500.214270693
802,1548744.6415391257
804,1440089.3704584274
806,1338355.7413583586
808,1246002.4351940232
810,1164641.9993123675
812,1094313.8934356393
814,1033315.1507154639
816,979276.3012057306
818,928884.3489745458
820,880151.1850921786
822,831067.2044299131
824,781134.7456778135
826,731197.4373941015
828,682133.9307999852
830,635157.065687494
832,590767.9318637582
834,549817.9262336656
836,511926.9827578021
838,476508.58827418834
840,442988.8091633684
842,410512.7161371145
844,378885.83903410326
846,347759.8550145639
848,317145.038704723
850,286997.5341464601
852,257814.11993689087
854,229635.74166079867
856,202883.51438950063
858,177548.2583061767
860,153963.78261275878
862,132580.8515415665
864,113288.53811543316
866,96239.40874515912
868,81413.00428997858
870,68826.20859127876
872,58133.754868965356
874,49160.33286656182
876,41666.7751322839
878,35497.06635140222
880,30295.018445045593
882,25695.68578759554
884,21591.37521759164
886,17852.922836174053
888,14389.809163301048
890,11160.697668091325
892,8122.388938503005
894,5540.658797514908
896,3560.8201047046186
898,2067.8082667675035
900,1036.1379326991748
902,389.7262820249188
904,91.05201843704549
906,33.85408597934234
908,10.175341117526877
910,0.4798427012002451
912,-3.482973111878331
914,2.393407046365594
916,-5.54246237681494
918,-0.29287613119402345
920,-2.3379566926154904
922,4.289920058427215
924,0.9442159283387628
926,-2.7336637591896857
928,1.0006701908683229
930,-1.3057717257606596
932,1.5404292547943992
934,4.001179039549514
936,-1.414773894536123
938,3.248233771030033
940,0.4896997775772239
942,3.269850699677664
944,0.8757233738836303
946,1.835094323646329
948,-1.5911823412967454
950,0.22756291881490442
952,1.4645588048001232
954,3.043621082643513
956,0.027056986644400358
958,-0.10659459427895207
960,-0.7023202398106899
962,-2.0064684457895754
964,-3.0020412361544704
966,-2.2327748367148637
968,-2.2451702637504916
970,3.087313082970052
972,-1.474238603491238
974,-1.3750943045639343
976,0.09099228775895851
978,-4.359327552662422
980,0.17173412192045567
982,0.5883557203648353
984,-0.6237451035931326
986,0.24693956783995888
988,-1.1733774690472267
990,1.089032408027303
992,0.5823660453244227
994,0.22070109661222787
996,-2.4283186811864717
998,-1.410528741235163
