wave,flux
336,202.33318124323276
338,365.8279251026076
340,608.8053810852385
342,997.7370803154043
344,1557.629078493048
346,2273.8226479004484
348,3180.9532043120557
350,4285.510689017139
352,5639.562150883474
354,7278.750952232533
356,9215.746474197656
358,11433.70405608075
360,14021.101961636532
362,17103.521983930557
364,20758.001542201702
366,25029.700298347576
368,30103.625111706282
370,36146.95472705435
372,43343.08144684534
374,52064.65433937359
376,63155.21293021199
378,77621.2204570554
380,96349.19033587906
382,119998.41459558051
384,149164.63044486806
386,184141.4146603064
388,225021.26904052353
390,272711.06014089694
392,329597.7157917145
394,398297.5628827972
396,480111.38480256737
398,573401.3256619725
400,674507.7336518556
402,779655.0872661059
404,887849.3575642796
406,1000606.7801032116
408,1121389.1481355997
410,1252206.956791553
412,1391585.3401300707
414,1535535.4922754657
416,1680054.5866164842
418,1823588.67494978
420,1967092.0227361068
422,2113607.172830607
424,2267776.32193169
426,2434120.033040534
428,2616543.2081660763
430,2816520.3179499274
432,3032843.168076563
434,3262404.575670851
436,3504253.6761403964
438,3757746.384495732
440,4025580.8919626633
442,4308289.502897041
444,4606399.375825669
446,4914614.785731461
448,5214841.966418664
450,5485883.988936365
452,5710563.95363322
454,5871005.11386823
456,5968533.830100238
458,6019136.484799484
460,6038624.5212546615
462,6041642.498616024
464,6041462.67120669
466,6041245.407078698
468,6041571.0563986
470,6041504.8551933225
472,6040866.568628274
474,6041462.849650454
476,6041542.049469316
478,6041493.346310837
480,6041558.696873659
482,6041305.067749958
484,6041535.615078573
486,6040913.341680218
488,6041349.470073419
490,6041396.034047974
492,6041331.27226178
494,6041431.653980866
496,6041681.736284099
498,6041199.465567978
500,6041559.602377688
502,6041141.169103034
504,6041294.429838374
506,6041143.206597239
508,6041867.195644303
510,6041136.712633419
512,6041540.886841562
514,6041363.75160194
516,6041813.964369111
518,6041211.516392554
520,6041088.770541622
522,6041171.770809974
524,6041237.627363393
526,6041080.394668994
528,6041406.209598357
530,6041260.137867949
532,6041177.354996502
534,6040990.023567908
536,6040990.631557706
538,6041098.162512341
540,6041428.368014643
542,6041290.231628247
544,6041489.255881784
546,6041472.847557934
548,6041561.71415753
550,6041411.645644138
552,6041395.247915885
554,6041589.177110264
556,6041453.916622132
558,6041424.803473624
560,6041526.294534959
562,6041436.76514535
564,6041134.793528043
566,6041507.459386011
568,6041314.83126573
570,6041336.003385432
572,6041622.093058531
574,6041349.269863885
576,6041473.512618795
578,6041513.171494146
580,6041629.164105117
582,6041856.392766919
584,6041739.867537093
586,6041752.334019846
588,6041898.43511857
590,6041589.793577477
592,6041335.851561145
594,6041110.154525882
596,6040840.229047123
598,6041111.577049043
600,6041807.299707521
602,6041562.158370359
604,6041290.659166583
606,6041634.100595873
608,6041613.016447768
610,6041500.117163164
612,6041627.66710215
614,6041765.4561136365
616,6041620.358064584
618,6041595.177844247
620,6041641.265017409
622,6041593.878481386
624,6041364.631295704
626,6040996.199538386
628,6041463.770692993
630,6042237.102234976
632,6041110.042558127
634,6040625.738446824
636,6041426.692775483
638,6041661.142945544
640,6041804.31526782
642,6042182.393086842
644,6042600.551734776
646,6042850.084512822
648,6042722.284722187
650,6042008.445664074
652,6041722.469052357
654,6041397.696569807
656,6041151.1807954395
658,6041511.4288956765
660,6041551.262221737
662,6041377.486710606
664,6041484.487439647
666,6041443.750089369
668,6041107.991048773
670,6041563.760999665
672,6041267.2062764475
674,6041163.483843256
676,6041536.128915831
678,6041346.24345349
680,6041150.289956291
682,6041410.314774397
684,6041560.064687422
686,6041447.9187860545
688,6040955.81893969
690,6041315.875338955
692,6041350.307975556
694,6041850.281893436
696,6041497.367671758
698,6041199.302168769
700,6041453.64627868
702,6041828.693192877
704,6040860.42770877
706,6041675.622792104
708,6041571.681644926
710,6041346.454989626
712,6041546.234560798
714,6041858.824615336
716,6041142.5820534965
718,6041286.403162461
720,6041703.1207177285
722,6041807.585318082
724,6041329.8607438
726,6041296.890614847
728,6041527.288726995
730,6041723.792105585
732,6041192.330811199
734,6041150.1016538385
736,6041704.398114255
738,6041255.137810724
740,6041344.973276121
742,6041402.044472554
744,6041509.896928869
746,6041611.23472158
748,6041281.529689905
750,6041392.455248062
752,6040981.1977447625
754,6041295.389267499
756,6041239.4416478425
758,6041271.659960353
760,6041533.037164191
762,6033170.558480699
764,5997309.196911797
766,5919816.184365741
768,5789128.623488824
770,5591227.92157777
772,5331562.926099856
774,5030824.995786329
776,4699258.250554136
778,4346757.545140255
780,3987299.429810042
782,3631624.3336451664
784,3286378.269654552
786,2964560.482130975
788,2677357.907088312
790,2431812.978824052
792,2227005.630354121
794,2056991.6675400746
796,1912122.286436368
798,1783069.2196949078
800,1663500.214270693
802,1548744.6415391257
804,1440089.3704584274
806,1338355.7413583586
808,1246002.4351940232
810,1164641.9993123675
812,1094313.8934356393
814,1033315.1507154639
816,979276.3012057306
818,928884.3489745458
820,880151.1850921786
822,831067.2044299131
824,781134.7456778135
826,731197.4373941015
828,682133.9307999852
830,635157.065687494
832,590767.9318637582
834,549817.9262336656
836,511926.9827578021
838,476508.58827418834
840,442988.8091633684
842,410512.7161371145
844,378885.83903410326
846,347759.8550145639
848,317145.038704723
850,286997.5341464601
852,257814.11993689087
854,229635.74166079867
856,202883.51438950063
858,177548.2583061767
860,153963.78261275878
862,132580.8515415665
864,113288.53811543316
866,96239.40874515912
868,81413.00428997858
870,68826.20859127876
872,58133.754868965356
874,49160.33286656182
876,41666.7751322839
878,35497.06635140222
880,30295.018445045593
882,25695.68578759554
884,21591.37521759164
886,17852.922836174053
888,14389.809163301048
890,11160.697668091325
892,8122.388938503005
894,5540.658797514908
896,3560.8201047046186
898,2067.8082667675035
900,1036.1379326991748
902,389.7262820249188
904,91.05201843704549
906,33.85408597934234
908,10.175341117526877
910,0.4798427012002451
912,-3.482973111878331
914,2.393407046365594
916,-5.54246237681494
918,-0.29287613119402345
920,-2.3379566926154904
922,4.289920058427215
924,0.9442159283387628
926,-2.7336637591896857
928,1.0006701908683229
930,-1.3057717257606596
932,1.5404292547943992
934,4.001179039549514
936,-1.414773894536123
938,3.248233771030033
940,0.4896997775772239
942,3.269850699677664
944,0.8757233738836303
946,1.835094323646329
948,-1.5911823412967454
950,0.22756291881490442
952,1.4645588048001232
954,3.043621082643513
956,0.027056986644400358
958,-0.10659459427895207
960,-0.7023202398106899
962,-2.0064684457895754
964,-3.0020412361544704
966,-2.2327748367148637
968,-2.2451702637504916
970,3.087313082970052
972,-1.474238603491238
974,-1.3750943045639343
976,0.09099228775895851
978,-4.359327552662422
980,0.17173412192045567
982,0.5883557203648353
984,-0.6237451035931326
986,0.24693956783995888
988,-1.1733774690472267
990,1.089032408027303
992,0.5823660453244227
994,0.22070109661222787
996,-2.4283186811864717
998,-1.410528741235163
