wave,flux
336,8.538993034933549
338,77.56939788357212
340,229.1890854756563
342,414.6272478585679
344,622.851290095355
346,961.3430676759466
348,1372.5569440193983
350,1710.6581851605579
352,2018.0881513562083
354,2391.6304186946104
356,2808.6881793724137
358,3411.0308761169276
360,4398.980235847283
362,5708.90587774477
364,7109.086351840897
366,8605.29855687722
368,10366.405455597436
370,12431.456742768427
372,14758.842693432136
374,17504.223639092485
376,20787.719117709472
378,24695.623230723537
380,29346.958126641824
382,35516.99232347808
384,44829.09976777867
386,59886.50066825348
388,83602.7957707165
390,117475.47742101671
392,160931.2408532696
394,208945.98666784834
396,256031.07442795145
398,299442.1203932073
400,342538.8297965646
402,388515.2133614907
404,435464.340115788
406,476102.14251303836
408,503402.4639497438
410,517006.6415174849
412,523511.28986894264
414,532647.7054459847
416,551436.4520901486
418,582802.3375194452
420,629771.3222128017
422,697782.3834012905
424,794183.6174286115
426,922829.2921794903
428,1077682.0588716257
430,1242758.969261851
432,1399643.9874470576
434,1535544.5106318314
436,1650211.6510482498
438,1754525.2574771664
440,1865521.73881352
442,1997151.2957272006
444,2157416.517816079
446,2347762.2845485364
448,2564489.8243578775
450,2804765.6034216946
452,3065051.1272090585
454,3347207.764510286
456,3649492.8462425326
458,3969932.1681085606
460,4305041.108543678
462,4650660.176338806
464,4985068.4499853775
466,5289614.697032214
468,5551244.830751251
470,5756235.001737571
472,5893270.245771122
474,5977335.7251472715
476,6021567.470775399
478,6038707.23379542
480,6041704.726329036
482,6041448.317005586
484,6041479.774879236
486,6041406.884863879
488,6041577.823273766
490,6041002.051453122
492,6041297.693648296
494,6041374.441530722
496,6041584.094453196
498,6041424.123775586
500,6041056.134452024
502,6041080.223497454
504,6041447.923641083
506,6041631.976218365
508,6041531.5014943
510,6041702.772732561
512,6041191.3378727725
514,6041381.057113905
516,6041153.625624429
518,6041444.905270214
520,6041231.340525912
522,6041219.135368572
524,6041405.73495378
526,6041222.583245502
528,6041161.100316364
530,6041054.521557737
532,6041301.127829715
534,6041440.837918957
536,6041346.486298241
538,6041610.568826411
540,6041013.930030587
542,6041898.731035586
544,6041687.488238166
546,6041060.755487244
548,6041556.070079934
550,6041195.841075948
552,6041281.757680767
554,6041411.0535734305
556,6041352.7215693025
558,6041631.863545996
560,6041476.684171162
562,6041314.229684669
564,6041396.2246758435
566,6041344.525442975
568,6041000.248159979
570,6041285.742074257
572,6041356.040063377
574,6041180.067650488
576,6041121.220792051
578,6041227.887318079
580,6041548.87607833
582,6041644.482607698
584,6041407.84958574
586,6041352.820718665
588,6041041.466169434
590,6041386.782679105
592,6041533.449786556
594,6041247.9198867045
596,6041346.688113769
598,6041805.876139737
600,6041385.37277896
602,6041330.4391765995
604,6041572.7648284
606,6041489.0343038775
608,6041326.471480342
610,6041413.93293169
612,6041410.407576317
614,6041430.591773292
616,6041840.737229117
618,6042102.825294398
620,6041070.578994207
622,6039929.3380169915
624,6040518.784352643
626,6040770.738890091
628,6040350.351417801
630,6040228.183894342
632,6041064.381971998
634,6041217.93416397
636,6040887.944762435
638,6041452.738522375
640,6040513.908017858
642,6039684.650745085
644,6041675.982716584
646,6041823.514934235
648,6040380.620297182
650,6040867.866254229
652,6042044.560281637
654,6043066.39306967
656,6044118.526832612
658,6044592.552713284
660,6043815.006474891
662,6041556.883968703
664,6039352.0964470655
666,6038885.598665134
668,6040344.799715124
670,6042189.198030397
672,6042200.8764044205
674,6041645.8767808415
676,6041949.377297427
678,6042390.785738201
680,6042653.410062331
682,6042956.137473995
684,6042789.643782041
686,6041755.818430058
688,6040916.624743617
690,6040959.89836253
692,6041334.086621693
694,6041869.243263003
696,6041504.571434479
698,6041199.957486299
700,6041453.712187031
702,6041828.699991452
704,6040860.4283994455
706,6041675.622859873
708,6041571.681651276
710,6041346.4549901895
712,6041546.2345608445
714,6041858.82461534
716,6041142.582053497
718,6041286.403162461
720,6041703.1207177285
722,6041807.585318082
724,6041329.8607438
726,6041296.890614847
728,6041527.288726995
730,6041723.792105585
732,6041192.330811199
734,6041150.1016538385
736,6041704.398114255
738,6041255.137810724
740,6041344.973276121
742,6041402.044472554
744,6041509.896928869
746,6041611.23472158
748,6041281.529689905
750,6041392.455248062
752,6040981.1977447625
754,6041295.389267499
756,6041239.4416478425
758,6041271.659960353
760,6041533.037164191
762,6033170.558480699
764,5997309.196911797
766,5919816.184365741
768,5789128.623488824
770,5591227.92157777
772,5331562.926099856
774,5030824.995786329
776,4699258.250554136
778,4346757.545140255
780,3987299.429810042
782,3631624.3336451664
784,3286378.269654552
786,2964560.482130975
788,2677357.907088312
790,2431812.978824052
792,2227005.630354121
794,2056991.6675400746
796,1912122.286436368
798,1783069.2196949078
800,1663500.214270693
802,1548744.6415391257
804,1440089.3704584274
806,1338355.7413583586
808,1246002.4351940232
810,1164641.9993123675
812,1094313.8934356393
814,1033315.1507154639
816,979276.3012057306
818,928884.3489745458
820,880151.1850921786
822,831067.2044299131
824,781134.7456778135
826,731197.4373941015
828,682133.9307999852
830,635157.065687494
832,590767.9318637582
834,549817.9262336656
836,511926.9827578021
838,476508.58827418834
840,442988.8091633684
842,410512.7161371145
844,378885.83903410326
846,347759.8550145639
848,317145.038704723
850,286997.5341464601
852,257814.11993689087
854,229635.74166079867
856,202883.51438950063
858,177548.2583061767
860,153963.78261275878
862,132580.8515415665
864,113288.53811543316
866,96239.40874515912
868,81413.00428997858
870,68826.20859127876
872,58133.754868965356
874,49160.33286656182
876,41666.7751322839
878,35497.06635140222
880,30295.018445045593
882,25695.68578759554
884,21591.37521759164
886,17852.922836174053
888,14389.809163301048
890,11160.697668091325
892,8122.388938503005
894,5540.658797514908
896,3560.8201047046186
898,2067.8082667675035
900,1036.1379326991748
902,389.7262820249188
904,91.05201843704549
906,33.85408597934234
908,10.175341117526877
910,0.4798427012002451
912,-3.482973111878331
914,2.393407046365594
916,-5.54246237681494
918,-0.29287613119402345
920,-2.3379566926154904
922,4.289920058427215
924,0.9442159283387628
926,-2.7336637591896857
928,1.0006701908683229
930,-1.3057717257606596
932,1.5404292547943992
934,4.001179039549514
936,-1.414773894536123
938,3.248233771030033
940,0.4896997775772239
942,3.269850699677664
944,0.8757233738836303
946,1.835094323646329
948,-1.5911823412967454
950,0.22756291881490442
952,1.4645588048001232
954,3.043621082643513
956,0.027056986644400358
958,-0.10659459427895207
960,-0.7023202398106899
962,-2.0064684457895754
964,-3.0020412361544704
966,-2.2327748367148637
968,-2.2451702637504916
970,3.087313082970052
972,-1.474238603491238
974,-1.3750943045639343
976,0.09099228775895851
978,-4.359327552662422
980,0.17173412192045567
982,0.5883557203648353
984,-0.6237451035931326
986,0.24693956783995888
988,-1.1733774690472267
990,1.089032408027303
992,0.5823660453244227
994,0.22070109661222787
996,-2.4283186811864717
998,-1.410528741235163
