wave,flux
336,120235.51790838335
338,114771.70350456302
340,109167.33305402387
342,111667.53076997002
344,130432.5677044557
346,176523.78978260132
348,244206.00163341404
350,299666.930021939
352,314548.8409604028
354,295018.77005588805
356,269792.93075221055
358,268635.1412385512
360,304529.25495625444
362,364774.05742685316
364,424882.6521391279
366,469533.7247920515
368,494224.18565020466
370,496884.19153047365
372,480368.5669834537
374,456400.77886105457
376,439948.7060416404
378,440490.53649984446
380,459910.1829803286
382,492994.802960693
384,529887.40095132
386,565502.8765025678
388,609855.5240907156
390,687143.7608036053
392,821204.245718764
394,1014058.5433303007
396,1242347.668966051
398,1464050.3902469543
400,1642015.9091223506
402,1753562.871585811
404,1798864.6074443914
406,1796472.4012443272
408,1773213.6367456377
410,1751882.6871216819
412,1747697.1010288233
414,1774617.0897663268
416,1850555.890397632
418,1995322.5810871648
420,2211578.124286746
422,2475964.6362241567
424,2739538.343815251
426,2950807.7484329734
428,3082797.176888988
430,3144692.2635154785
432,3174023.1831119363
434,3218697.6457352135
436,3309816.225225805
438,3456109.543786685
440,3646359.4233688186
442,3860473.0897577084
444,4082638.0058043045
446,4312670.771953046
448,4560859.176602753
450,4835015.196900881
452,5124698.784910753
454,5408197.817325243
456,5658999.053778741
458,5841564.634865773
460,5957220.22980726
462,6017314.808486995
464,6039344.9980017515
466,6041827.438462511
468,6041411.324153838
470,6041415.763750502
472,6041167.87946282
474,6041943.435181815
476,6041289.817861921
478,6041120.479223054
480,6041245.25301571
482,6041304.834711391
484,6041621.858402817
486,6041546.987239196
488,6041488.992224654
490,6040960.7557706935
492,6041007.441726346
494,6041399.783062109
496,6041880.7477755705
498,6041333.659429882
500,6041346.588736947
502,6041512.91582164
504,6041082.296225275
506,6041432.953140821
508,6041232.347259945
510,6041204.927439218
512,6041223.7649230575
514,6041501.205132513
516,6041474.241059243
518,6041653.130921136
520,6041385.428212473
522,6041522.544412977
524,6041358.878859348
526,6041533.524840289
528,6041459.398073534
530,6041567.074397414
532,6041132.739809692
534,6041487.326454142
536,6041585.818807845
538,6041478.679118076
540,6041652.21026312
542,6041000.967533048
544,6041678.548547394
546,6041770.8748004325
548,6041541.99946995
550,6041395.7509272145
552,6041283.219613411
554,6041280.561219817
556,6041052.455200833
558,6041129.113369127
560,6041702.495790665
562,6041123.474268723
564,6041226.798303208
566,6041606.910210221
568,6041188.149690385
570,6041210.108801294
572,6041575.070206573
574,6041074.606295316
576,6041434.2302718945
578,6041489.589401177
580,6041373.730227316
582,6041390.144027963
584,6041293.907730396
586,6041766.143339672
588,6041551.6205324605
590,6040992.554058473
592,6041407.130807089
594,6041915.576172674
596,6041711.591766026
598,6041627.790635199
600,6041496.449815151
602,6041463.7391156545
604,6041505.987271978
606,6041643.518428156
608,6041860.79294843
610,6041585.446836879
612,6041301.635431133
614,6041447.41455869
616,6041698.573916237
618,6041285.638485416
620,6040735.376734228
622,6040392.539751858
624,6040202.412154924
626,6040520.11421243
628,6040681.875928085
630,6040659.355649507
632,6041588.140075721
634,6042466.899800186
636,6042704.7028913675
638,6042597.347046866
640,6042062.066440648
642,6042133.785933562
644,6043270.374967663
646,6041972.047763981
648,6040937.805662589
650,6041384.237520071
652,6041707.672415851
654,6041397.690470317
656,6041151.212703985
658,6041511.430951126
660,6041551.262280833
662,6041377.486709373
664,6041484.487439409
666,6041443.750089351
668,6041107.991048771
670,6041563.760999665
672,6041267.2062764475
674,6041163.483843256
676,6041536.128915831
678,6041346.24345349
680,6041150.289956291
682,6041410.314774397
684,6041560.064687422
686,6041447.9187860545
688,6040955.81893969
690,6041315.875338955
692,6041350.307975556
694,6041850.281893436
696,6041497.367671758
698,6041199.302168769
700,6041453.64627868
702,6041828.693192877
704,6040860.42770877
706,6041675.622792104
708,6041571.681644926
710,6041346.454989626
712,6041546.234560798
714,6041858.824615336
716,6041142.5820534965
718,6041286.403162461
720,6041703.1207177285
722,6041807.585318082
724,6041329.8607438
726,6041296.890614847
728,6041527.288726995
730,6041723.792105585
732,6041192.330811199
734,6041150.1016538385
736,6041704.398114255
738,6041255.137810724
740,6041344.973276121
742,6041402.044472554
744,6041509.896928869
746,6041611.23472158
748,6041281.529689905
750,6041392.455248062
752,6040981.1977447625
754,6041295.389267499
756,6041239.4416478425
758,6041271.659960353
760,6041533.037164191
762,6033170.558480699
764,5997309.196911797
766,5919816.184365741
768,5789128.623488824
770,5591227.92157777
772,5331562.926099856
774,5030824.995786329
776,4699258.250554136
778,4346757.545140255
780,3987299.429810042
782,3631624.3336451664
784,3286378.269654552
786,2964560.482130975
788,2677357.907088312
790,2431812.978824052
792,2227005.630354121
794,2056991.6675400746
796,1912122.286436368
798,1783069.2196949078
800,1663500.214270693
802,1548744.6415391257
804,1440089.3704584274
806,1338355.7413583586
808,1246002.4351940232
810,1164641.9993123675
812,1094313.8934356393
814,1033315.1507154639
816,979276.3012057306
818,928884.3489745458
820,880151.1850921786
822,831067.2044299131
824,781134.7456778135
826,731197.4373941015
828,682133.9307999852
830,635157.065687494
832,590767.9318637582
834,549817.9262336656
836,511926.9827578021
838,476508.58827418834
840,442988.8091633684
842,410512.7161371145
844,378885.83903410326
846,347759.8550145639
848,317145.038704723
850,286997.5341464601
852,257814.11993689087
854,229635.74166079867
856,202883.51438950063
858,177548.2583061767
860,153963.78261275878
862,132580.8515415665
864,113288.53811543316
866,96239.40874515912
868,81413.00428997858
870,68826.20859127876
872,58133.754868965356
874,49160.33286656182
876,41666.7751322839
878,35497.06635140222
880,30295.018445045593
882,25695.68578759554
884,21591.37521759164
886,17852.922836174053
888,14389.809163301048
890,11160.697668091325
892,8122.388938503005
894,5540.658797514908
896,3560.8201047046186
898,2067.8082667675035
900,1036.1379326991748
902,389.7262820249188
904,91.05201843704549
906,33.85408597934234
908,10.175341117526877
910,0.4798427012002451
912,-3.482973111878331
914,2.393407046365594
916,-5.54246237681494
918,-0.29287613119402345
920,-2.3379566926154904
922,4.289920058427215
924,0.9442159283387628
926,-2.7336637591896857
928,1.0006701908683229
930,-1.3057717257606596
932,1.5404292547943992
934,4.001179039549514
936,-1.414773894536123
938,3.248233771030033
940,0.4896997775772239
942,3.269850699677664
944,0.8757233738836303
946,1.835094323646329
948,-1.5911823412967454
950,0.22756291881490442
952,1.4645588048001232
954,3.043621082643513
956,0.027056986644400358
958,-0.10659459427895207
960,-0.7023202398106899
962,-2.0064684457895754
964,-3.0020412361544704
966,-2.2327748367148637
968,-2.2451702637504916
970,3.087313082970052
972,-1.474238603491238
974,-1.3750943045639343
976,0.09099228775895851
978,-4.359327552662422
980,0.17173412192045567
982,0.5883557203648353
984,-0.6237451035931326
986,0.24693956783995888
988,-1.1733774690472267
990,1.089032408027303
992,0.5823660453244227
994,0.22070109661222787
996,-2.4283186811864717
998,-1.410528741235163
