wave,flux
336,175.9228997521007
338,1392.0257538704611
340,4266.087237900722
342,9951.533389215367
344,18733.31094108559
346,26953.842284674676
348,32902.9028742511
350,37599.08812043591
352,41926.65848253546
354,46647.19669276312
356,52073.052392048776
358,58761.520587395455
360,67226.33195297995
362,77979.18863810912
364,91288.12976475139
366,105946.04199747759
368,119470.25639453527
370,130557.57411918495
372,139182.33218155373
374,145727.75694259434
376,151962.09765261112
378,162031.49342471702
380,182546.608004457
382,225132.26656606392
384,314308.458499792
386,492968.89309056744
388,818070.8665617807
390,1343660.9296318742
392,2105103.4094015174
394,3093012.53671225
396,4168248.8396804775
398,5105449.380928778
400,5705975.8235701155
402,5971317.566958677
404,5975916.850315716
406,5742770.273413996
408,5249677.737510913
410,4510153.501467533
412,3684625.5342446635
414,2914562.4776281402
416,2294747.7614889313
418,1819890.7857637368
420,1456864.247931676
422,1178458.015349981
424,966090.2414189425
426,810635.0078983313
428,706550.1806433211
430,644043.0123058691
432,606563.5730081939
434,575614.0821707909
436,537244.4520178701
438,487780.80820660887
440,433329.40092715144
442,383153.5186059292
444,344436.8460329352
446,319181.2275449119
448,305945.38184498285
450,301749.2479856387
452,305250.39958564553
454,347803.9727079608
456,475504.1000529936
458,692446.7570490749
460,999811.7856861574
462,1387856.6629148938
464,1760714.0062464182
466,2075224.2325851927
468,2333037.805832774
470,2549544.526078846
472,2755560.4986811886
474,3030775.3622023705
476,3401517.619237127
478,3849617.391773073
480,4344399.201385285
482,4841974.33160214
484,5277105.231254228
486,5604184.268269922
488,5827500.21562619
490,5961354.807546528
492,6025422.831707909
494,6041141.152209837
496,6041223.633013783
498,6041340.037427682
500,6041380.36210362
502,6041191.623186823
504,6041205.436809333
506,6041304.988701136
508,6041725.778784244
510,6041417.673698166
512,6041156.510890796
514,6040862.961544718
516,6040084.106902676
518,6023317.328820134
520,5976726.750919725
522,5890896.711976148
524,5763875.826449688
526,5598982.471824399
528,5403619.952858879
530,5189005.0665387055
532,4984724.7111097295
534,4813646.995077974
536,4686245.6677437145
538,4600550.61759688
540,4547076.1882731095
542,4513162.807455545
544,4491450.952845298
546,4480272.631951859
548,4482017.215087671
550,4496899.85805424
552,4528620.439400309
554,4587980.359345938
556,4685704.3590440415
558,4826101.970076302
560,5004540.59514749
562,5200890.671188241
564,5388453.217066201
566,5558355.27151457
568,5707927.969374748
570,5832128.208217731
572,5927495.350145232
574,5991810.189879217
576,6027645.915060047
578,6040428.673665526
580,6041768.559749023
582,6041271.713677476
584,6041171.660367516
586,6041337.7178293485
588,6041647.938058848
590,6041324.333941821
592,6040785.50568764
594,6040992.962385712
596,6041648.754249433
598,6041772.874068435
600,6041962.222984171
602,6041947.802186169
604,6041579.471989065
606,6041269.022700336
608,6041389.531470647
610,6041432.001099332
612,6041414.6698084045
614,6041372.15900221
616,6041399.633293
618,6041788.43034549
620,6040966.777025999
622,6040234.166740126
624,6041605.475401577
626,6041315.316230233
628,6040176.821987527
630,6040447.167871088
632,6042035.832198657
634,6042262.275566216
636,6041279.456921953
638,6041559.73492123
640,6042030.434572277
642,6041857.455599831
644,6041429.668353177
646,6042238.906425287
648,6043500.717777287
650,6043017.641797551
652,6041331.957658358
654,6041334.513429921
656,6041083.902597529
658,6040621.073258176
660,6041721.293886634
662,6041363.433576825
664,6041481.76233747
666,6041443.560561117
668,6041107.982266923
670,6041563.760778907
672,6041267.206282626
674,6041163.483844506
676,6041536.128915941
678,6041346.243453498
680,6041150.289956291
682,6041410.314774397
684,6041560.064687422
686,6041447.9187860545
688,6040955.81893969
690,6041315.875338955
692,6041350.307975556
694,6041850.281893436
696,6041497.367671758
698,6041199.302168769
700,6041453.64627868
702,6041828.693192877
704,6040860.42770877
706,6041675.622792104
708,6041571.681644926
710,6041346.454989626
712,6041546.234560798
714,6041858.824615336
716,6041142.5820534965
718,6041286.403162461
720,6041703.1207177285
722,6041807.585318082
724,6041329.8607438
726,6041296.890614847
728,6041527.288726995
730,6041723.792105585
732,6041192.330811199
734,6041150.1016538385
736,6041704.398114255
738,6041255.137810724
740,6041344.973276121
742,6041402.044472554
744,6041509.896928869
746,6041611.23472158
748,6041281.529689905
750,6041392.455248062
752,6040981.1977447625
754,6041295.389267499
756,6041239.4416478425
758,6041271.659960353
760,6041533.037164191
762,6033170.558480699
764,5997309.196911797
766,5919816.184365741
768,5789128.623488824
770,5591227.92157777
772,5331562.926099856
774,5030824.995786329
776,4699258.250554136
778,4346757.545140255
780,3987299.429810042
782,3631624.3336451664
784,3286378.269654552
786,2964560.482130975
788,2677357.907088312
790,2431812.978824052
792,2227005.630354121
794,2056991.6675400746
796,1912122.286436368
798,1783069.2196949078
800,1663500.214270693
802,1548744.6415391257
804,1440089.3704584274
806,1338355.7413583586
808,1246002.4351940232
810,1164641.9993123675
812,1094313.8934356393
814,1033315.1507154639
816,979276.3012057306
818,928884.3489745458
820,880151.1850921786
822,831067.2044299131
824,781134.7456778135
826,731197.4373941015
828,682133.9307999852
830,635157.065687494
832,590767.9318637582
834,549817.9262336656
836,511926.9827578021
838,476508.58827418834
840,442988.8091633684
842,410512.7161371145
844,378885.83903410326
846,347759.8550145639
848,317145.038704723
850,286997.5341464601
852,257814.11993689087
854,229635.74166079867
856,202883.51438950063
858,177548.2583061767
860,153963.78261275878
862,132580.8515415665
864,113288.53811543316
866,96239.40874515912
868,81413.00428997858
870,68826.20859127876
872,58133.754868965356
874,49160.33286656182
876,41666.7751322839
878,35497.06635140222
880,30295.018445045593
882,25695.68578759554
884,21591.37521759164
886,17852.922836174053
888,14389.809163301048
890,11160.697668091325
892,8122.388938503005
894,5540.658797514908
896,3560.8201047046186
898,2067.8082667675035
900,1036.1379326991748
902,389.7262820249188
904,91.05201843704549
906,33.85408597934234
908,10.175341117526877
910,0.4798427012002451
912,-3.482973111878331
914,2.393407046365594
916,-5.54246237681494
918,-0.29287613119402345
920,-2.3379566926154904
922,4.289920058427215
924,0.9442159283387628
926,-2.7336637591896857
928,1.0006701908683229
930,-1.3057717257606596
932,1.5404292547943992
934,4.001179039549514
936,-1.414773894536123
938,3.248233771030033
940,0.4896997775772239
942,3.269850699677664
944,0.8757233738836303
946,1.835094323646329
948,-1.5911823412967454
950,0.22756291881490442
952,1.4645588048001232
954,3.043621082643513
956,0.027056986644400358
958,-0.10659459427895207
960,-0.7023202398106899
962,-2.0064684457895754
964,-3.0020412361544704
966,-2.2327748367148637
968,-2.2451702637504916
970,3.087313082970052
972,-1.474238603491238
974,-1.3750943045639343
976,0.09099228775895851
978,-4.359327552662422
980,0.17173412192045567
982,0.5883557203648353
984,-0.6237451035931326
986,0.24693956783995888
988,-1.1733774690472267
990,1.089032408027303
992,0.5823660453244227
994,0.22070109661222787
996,-2.4283186811864717
998,-1.410528741235163
