wave,flux
336,-2.1251097673157906
338,0.5934923101483591
340,1.196520337816171
342,-6.35906095190739
344,-0.20277634441822817
346,-7.508888075043586
348,-0.9824452140481308
350,-2.0691907044267777
352,-0.33737649155826643
354,1.7749726616266173
356,2.6451278297672545
358,153.83332317712947
360,827.5659980499261
362,2232.3389031938036
364,4219.07048122122
366,6569.991529849289
368,9312.738264106356
370,12385.994745711216
372,15809.63276225621
374,19912.312152360784
376,24747.53107781576
378,30146.429376921144
380,36174.21282539022
382,43300.30906868898
384,52039.41420473562
386,62706.5903103947
388,75131.38199175282
390,90143.47748230558
392,111940.96400276314
394,140762.3425273021
396,172869.30087526454
398,200028.1184892263
400,221736.28835287175
402,239867.59806315298
404,258526.6416223954
406,278832.7970124075
408,302049.41600891796
410,329202.08329187724
412,360429.9353531595
414,395626.5221028049
416,436484.9226238322
418,488411.30869577057
420,562323.3074766949
422,675056.8785084174
424,844819.0493053875
426,1086668.9376639267
428,1403306.2607302507
430,1779797.6251852072
432,2185867.5730267907
434,2586883.4853483303
436,2958225.639667634
438,3289976.6386044594
440,3587251.289165493
442,3863448.9823643356
444,4130512.231712608
446,4398709.588081545
448,4677642.9416806735
450,4966499.180651617
452,5250235.773030493
454,5511933.965627144
456,5729974.700412773
458,5882762.8077051435
460,5975545.882984451
462,6023786.104469515
464,6039830.1158014545
466,6041168.04042988
468,6041453.7703225715
470,6041337.072800516
472,6041561.570420968
474,6041376.823168105
476,6041228.986188208
478,6041194.207374234
480,6041612.310520442
482,6041267.261914555
484,6041344.555681912
486,6041436.951630429
488,6041285.168811778
490,6041695.17103599
492,6041548.472470401
494,6041557.638617781
496,6041832.565944469
498,6041125.560454994
500,6041382.171120781
502,6041204.480506149
504,6041513.656024497
506,6041933.0848224405
508,6041155.874185854
510,6041535.078289273
512,6041426.2749409415
514,6041393.670821626
516,6041306.441606159
518,6041642.914250276
520,6041098.184324685
522,6041228.164045167
524,6041073.818511803
526,6041489.191751493
528,6041267.401246571
530,6041354.3996649105
532,6041834.877605386
534,6041254.750927086
536,6041469.109015709
538,6041532.190304993
540,6041878.932595244
542,6041652.027642638
544,6041421.401828448
546,6041234.01718629
548,6041326.747450957
550,6041611.3131736
552,6041608.348466121
554,6041760.1072889315
556,6041539.95923083
558,6041425.521143008
560,6041124.509210885
562,6041059.332780594
564,6041350.998524601
566,6040890.519518629
568,6040787.952401702
570,6041068.787866204
572,6041576.305810312
574,6041254.80957688
576,6041026.894316213
578,6041651.4603306865
580,6041557.670828986
582,6041090.498010759
584,6041257.931870954
586,6041104.613511141
588,6041746.097641408
590,6041416.534108362
592,6041062.210218106
594,6041270.028345862
596,6041362.492422529
598,6041268.571088958
600,6041786.487621406
602,6041847.401199484
604,6041508.385049091
606,6041347.656984018
608,6041444.829071353
610,6041822.23587862
612,6041280.633786621
614,6040801.0497316
616,6041548.745240906
618,6040920.324722987
620,6039816.095842336
622,6040215.155090657
624,6042269.7504962385
626,6042789.953583576
628,6041491.200598117
630,6040079.361333357
632,6040090.491196981
634,6040333.7329494795
636,6040452.011175273
638,6041120.470511591
640,6041313.499825579
642,6040902.348729454
644,6040758.4906569095
646,6041686.638552568
648,6041643.76994191
650,6041401.233341255
652,6041705.777732768
654,6041397.689689289
656,6041151.216789818
658,6041511.431214321
660,6041551.2622884
662,6041377.486709217
664,6041484.487439378
666,6041443.750089349
668,6041107.991048771
670,6041563.760999665
672,6041267.2062764475
674,6041163.483843256
676,6041536.128915831
678,6041346.24345349
680,6041150.289956291
682,6041410.314774397
684,6041560.064687422
686,6041447.9187860545
688,6040955.81893969
690,6041315.875338955
692,6041350.307975556
694,6041850.281893436
696,6041497.367671758
698,6041199.302168769
700,6041453.64627868
702,6041828.693192877
704,6040860.42770877
706,6041675.622792104
708,6041571.681644926
710,6041346.454989626
712,6041546.234560798
714,6041858.824615336
716,6041142.5820534965
718,6041286.403162461
720,6041703.1207177285
722,6041807.585318082
724,6041329.8607438
726,6041296.890614847
728,6041527.288726995
730,6041723.792105585
732,6041192.330811199
734,6041150.1016538385
736,6041704.398114255
738,6041255.137810724
740,6041344.973276121
742,6041402.044472554
744,6041509.896928869
746,6041611.23472158
748,6041281.529689905
750,6041392.455248062
752,6040981.1977447625
754,6041295.389267499
756,6041239.4416478425
758,6041271.659960353
760,6041533.037164191
762,6033170.558480699
764,5997309.196911797
766,5919816.184365741
768,5789128.623488824
770,5591227.92157777
772,5331562.926099856
774,5030824.995786329
776,4699258.250554136
778,4346757.545140255
780,3987299.429810042
782,3631624.3336451664
784,3286378.269654552
786,2964560.482130975
788,2677357.907088312
790,2431812.978824052
792,2227005.630354121
794,2056991.6675400746
796,1912122.286436368
798,1783069.2196949078
800,1663500.214270693
802,1548744.6415391257
804,1440089.3704584274
806,1338355.7413583586
808,1246002.4351940232
810,1164641.9993123675
812,1094313.8934356393
814,1033315.1507154639
816,979276.3012057306
818,928884.3489745458
820,880151.1850921786
822,831067.2044299131
824,781134.7456778135
826,731197.4373941015
828,682133.9307999852
830,635157.065687494
832,590767.9318637582
834,549817.9262336656
836,511926.9827578021
838,476508.58827418834
840,442988.8091633684
842,410512.7161371145
844,378885.83903410326
846,347759.8550145639
848,317145.038704723
850,286997.5341464601
852,257814.11993689087
854,229635.74166079867
856,202883.51438950063
858,177548.2583061767
860,153963.78261275878
862,132580.8515415665
864,113288.53811543316
866,96239.40874515912
868,81413.00428997858
870,68826.20859127876
872,58133.754868965356
874,49160.33286656182
876,41666.7751322839
878,35497.06635140222
880,30295.018445045593
882,25695.68578759554
884,21591.37521759164
886,17852.922836174053
888,14389.809163301048
890,11160.697668091325
892,8122.388938503005
894,5540.658797514908
896,3560.8201047046186
898,2067.8082667675035
900,1036.1379326991748
902,389.7262820249188
904,91.05201843704549
906,33.85408597934234
908,10.175341117526877
910,0.4798427012002451
912,-3.482973111878331
914,2.393407046365594
916,-5.54246237681494
918,-0.29287613119402345
920,-2.3379566926154904
922,4.289920058427215
924,0.9442159283387628
926,-2.7336637591896857
928,1.0006701908683229
930,-1.3057717257606596
932,1.5404292547943992
934,4.001179039549514
936,-1.414773894536123
938,3.248233771030033
940,0.4896997775772239
942,3.269850699677664
944,0.8757233738836303
946,1.835094323646329
948,-1.5911823412967454
950,0.22756291881490442
952,1.4645588048001232
954,3.043621082643513
956,0.027056986644400358
958,-0.10659459427895207
960,-0.7023202398106899
962,-2.0064684457895754
964,-3.0020412361544704
966,-2.2327748367148637
968,-2.2451702637504916
970,3.087313082970052
972,-1.474238603491238
974,-1.3750943045639343
976,0.09099228775895851
978,-4.359327552662422
980,0.17173412192045567
982,0.5883557203648353
984,-0.6237451035931326
986,0.24693956783995888
988,-1.1733774690472267
990,1.089032408027303
992,0.5823660453244227
994,0.22070109661222787
996,-2.4283186811864717
998,-1.410528741235163
