wave,flux
336,5307.409853709129
338,8769.06734021314
340,12426.321032932901
342,16371.31075880878
344,20846.92547633959
346,26824.44757127703
348,35053.340943934556
350,45741.043294547126
352,59324.04054410011
354,76297.90412899117
356,95629.2087216788
358,115474.36186315863
360,135109.79520417392
362,154451.90887405028
364,173553.56004882912
366,194034.50550845484
368,219245.79551684705
370,252969.2734132285
372,297545.2022421797
374,356318.2755894008
376,442737.51707773155
378,590935.8382336379
380,854498.9137414875
382,1276359.7058611289
384,1843971.702212882
386,2471505.923429101
388,3039542.8807401513
390,3469547.2622474767
392,3759412.7074145125
394,3962221.7946179453
396,4143433.2980302544
398,4360103.415992854
400,4666609.915773206
402,5061871.869395587
404,5474274.337288754
406,5797088.117113151
408,5971877.238820625
410,6035338.18744072
412,6041383.55335826
414,6041488.362091784
416,6041828.767781163
418,6041795.087426843
420,6040861.500310982
422,6041501.389487822
424,6041432.982112916
426,6041190.484617189
428,6041480.33103064
430,6041428.38744261
432,6041450.829890664
434,6041749.838063246
436,6041436.87145446
438,6041697.218301731
440,6041324.359144415
442,6041323.628581294
444,6041479.821425857
446,6041412.686015856
448,6041381.627509368
450,6041060.01889747
452,6041608.90948241
454,6041523.26223215
456,6041648.213161271
458,6041295.799835572
460,6041628.366976488
462,6041457.577371842
464,6041321.154121359
466,6040908.959463108
468,6041085.090403558
470,6041693.155955961
472,6041472.166477674
474,6041268.773246688
476,6041381.335084732
478,6041113.64705378
480,6041210.673381931
482,6041893.23668974
484,6041803.098404092
486,6041281.814754097
488,6041172.50559023
490,6041441.863316623
492,6041588.482913745
494,6041502.473785808
496,6041568.583458629
498,6041487.1099284915
500,6041682.6036131
502,6041575.709338125
504,6041203.730676597
506,6041128.533225514
508,6041326.821054391
510,6041587.067390624
512,6041381.998375531
514,6041464.551547975
516,6041668.867704843
518,6041078.411611754
520,6041404.860527447
522,6041888.214766335
524,6041630.999757538
526,6041502.073208318
528,6041870.156321841
530,6041687.301495597
532,6041540.210786205
534,6041299.167038979
536,6041239.1217998285
538,6041486.003097506
540,6041520.680000083
542,6041262.030615052
544,6041429.193962238
546,6041323.696146425
548,6041296.4472818505
550,6041623.523109132
552,6041353.973412415
554,6040959.923617395
556,6041843.923037734
558,6040328.349070639
560,6028920.55925555
562,6000530.826965755
564,5949762.784427138
566,5871740.968609599
568,5764184.354577041
570,5624672.1481574355
572,5453302.428712712
574,5249151.529287511
576,5022881.654520908
578,4789964.332852389
580,4564363.659266869
582,4359039.043800961
584,4185005.760484245
586,4051172.906837452
588,3967320.553612379
590,3939093.3714356315
592,3968276.2202562373
594,4050709.94179611
596,4177774.253361524
598,4339781.118920408
600,4527559.394727456
602,4731628.110199476
604,4941605.869797626
606,5146849.259123593
608,5336749.99145064
610,5501729.826791288
612,5641437.80684501
614,5757487.859672862
616,5850395.815073134
618,5921306.776831638
620,5972102.022483793
622,6006689.676509493
624,6029057.920109658
626,6039651.135522407
628,6041809.864997695
630,6040828.346471632
632,6041138.557383578
634,6041614.730611626
636,6041886.059033055
638,6042902.89195178
640,6042649.821658843
642,6041767.423950024
644,6042109.33161343
646,6041733.01077869
648,6040765.038377844
650,6040786.81612651
652,6041310.838710336
654,6041921.736946744
656,6042573.8275964
658,6042927.018822544
660,6042559.342077704
662,6041384.376062726
664,6041485.823382844
666,6041443.843002941
668,6041107.995353952
670,6041563.761107887
672,6041267.206273421
674,6041163.483842643
676,6041536.128915778
678,6041346.243453485
680,6041150.28995629
682,6041410.314774397
684,6041560.064687422
686,6041447.9187860545
688,6040955.81893969
690,6041315.875338955
692,6041350.307975556
694,6041850.281893436
696,6041497.367671758
698,6041199.302168769
700,6041453.64627868
702,6041828.693192877
704,6040860.42770877
706,6041675.622792104
708,6041571.681644926
710,6041346.454989626
712,6041546.234560798
714,6041858.824615336
716,6041142.5820534965
718,6041286.403162461
720,6041703.1207177285
722,6041807.585318082
724,6041329.8607438
726,6041296.890614847
728,6041527.288726995
730,6041723.792105585
732,6041192.330811199
734,6041150.1016538385
736,6041704.398114255
738,6041255.137810724
740,6041344.973276121
742,6041402.044472554
744,6041509.896928869
746,6041611.23472158
748,6041281.529689905
750,6041392.455248062
752,6040981.1977447625
754,6041295.389267499
756,6041239.4416478425
758,6041271.659960353
760,6041533.037164191
762,6033170.558480699
764,5997309.196911797
766,5919816.184365741
768,5789128.623488824
770,5591227.92157777
772,5331562.926099856
774,5030824.995786329
776,4699258.250554136
778,4346757.545140255
780,3987299.429810042
782,3631624.3336451664
784,3286378.269654552
786,2964560.482130975
788,2677357.907088312
790,2431812.978824052
792,2227005.630354121
794,2056991.6675400746
796,1912122.286436368
798,1783069.2196949078
800,1663500.214270693
802,1548744.6415391257
804,1440089.3704584274
806,1338355.7413583586
808,1246002.4351940232
810,1164641.9993123675
812,1094313.8934356393
814,1033315.1507154639
816,979276.3012057306
818,928884.3489745458
820,880151.1850921786
822,831067.2044299131
824,781134.7456778135
826,731197.4373941015
828,682133.9307999852
830,635157.065687494
832,590767.9318637582
834,549817.9262336656
836,511926.9827578021
838,476508.58827418834
840,442988.8091633684
842,410512.7161371145
844,378885.83903410326
846,347759.8550145639
848,317145.038704723
850,286997.5341464601
852,257814.11993689087
854,229635.74166079867
856,202883.51438950063
858,177548.2583061767
860,153963.78261275878
862,132580.8515415665
864,113288.53811543316
866,96239.40874515912
868,81413.00428997858
870,68826.20859127876
872,58133.754868965356
874,49160.33286656182
876,41666.7751322839
878,35497.06635140222
880,30295.018445045593
882,25695.68578759554
884,21591.37521759164
886,17852.922836174053
888,14389.809163301048
890,11160.697668091325
892,8122.388938503005
894,5540.658797514908
896,3560.8201047046186
898,2067.8082667675035
900,1036.1379326991748
902,389.7262820249188
904,91.05201843704549
906,33.85408597934234
908,10.175341117526877
910,0.4798427012002451
912,-3.482973111878331
914,2.393407046365594
916,-5.54246237681494
918,-0.29287613119402345
920,-2.3379566926154904
922,4.289920058427215
924,0.9442159283387628
926,-2.7336637591896857
928,1.0006701908683229
930,-1.3057717257606596
932,1.5404292547943992
934,4.001179039549514
936,-1.414773894536123
938,3.248233771030033
940,0.4896997775772239
942,3.269850699677664
944,0.8757233738836303
946,1.835094323646329
948,-1.5911823412967454
950,0.22756291881490442
952,1.4645588048001232
954,3.043621082643513
956,0.027056986644400358
958,-0.10659459427895207
960,-0.7023202398106899
962,-2.0064684457895754
964,-3.0020412361544704
966,-2.2327748367148637
968,-2.2451702637504916
970,3.087313082970052
972,-1.474238603491238
974,-1.3750943045639343
976,0.09099228775895851
978,-4.359327552662422
980,0.17173412192045567
982,0.5883557203648353
984,-0.6237451035931326
986,0.24693956783995888
988,-1.1733774690472267
990,1.089032408027303
992,0.5823660453244227
994,0.22070109661222787
996,-2.4283186811864717
998,-1.410528741235163
