wave,flux
336,1011.3664611688994
338,1433.233114581007
340,1984.5563969358352
342,2721.4095975724454
344,3739.652619241293
346,5124.364537798886
348,6788.496859634809
350,8475.922830794627
352,10358.546976930093
354,12578.828519213595
356,14965.348509584604
358,17449.383286936405
360,20277.53959548117
362,23638.94432858413
364,27652.73349397159
366,32748.162790721213
368,39817.38382081993
370,50631.98842947508
372,69042.72844525553
374,100397.89688828448
376,146431.93928648336
378,199942.00461374136
380,247749.7424359273
382,281562.4498123686
384,305727.50229708967
386,333704.28435409034
388,376079.57246859634
390,435605.89189280075
392,508845.13925437775
394,593896.2316805443
396,693335.3403690321
398,810870.2452201761
400,945471.4271548265
402,1087967.8959120233
404,1221883.0272254616
406,1329799.018323306
408,1402690.9519111877
410,1446237.3021855264
412,1478645.4997008329
414,1517595.1277686958
416,1571319.8705635485
418,1635939.4300968242
420,1703780.2140763164
422,1774382.6909137922
424,1855704.9386841478
426,1958349.5624037087
428,2088292.40882928
430,2240085.0043627513
432,2403045.9632982914
434,2570678.8662558384
436,2743963.8867470906
438,2935590.791413978
440,3158880.655938136
442,3421607.3069778606
444,3720883.1040387517
446,4041869.8450705973
448,4367683.299964125
450,4684127.618214795
452,4981301.088859897
454,5252808.026875276
456,5489699.037269065
458,5685834.527248127
460,5836980.965863307
462,5938258.417885381
464,5998484.174915306
466,6028288.93731734
468,6039589.303621813
470,6041462.260645722
472,6041555.223653886
474,6041331.029935686
476,6041449.797472867
478,6041168.402215093
480,6041409.145615815
482,6041635.6547793755
484,6041091.330594209
486,6041502.968630088
488,6040847.610126055
490,6041566.4522454105
492,6041491.54932784
494,6041056.884074993
496,6041643.240383217
498,6041198.246902081
500,6041532.074002238
502,6041253.435131809
504,6041330.515109758
506,6041014.299524377
508,6041302.358537551
510,6041601.285645522
512,6041638.824104888
514,6041267.5208954085
516,6040951.601932915
518,6041657.390478532
520,6040890.137049577
522,6041590.912714503
524,6041262.606844101
526,6041356.020243378
528,6041297.447092687
530,6041188.521054044
532,6041641.338724157
534,6041649.37658859
536,6041178.744245243
538,6041119.35021606
540,6040882.71761498
542,6040888.42078462
544,6041071.585462467
546,6040929.013505504
548,6041571.982137719
550,6041505.339150104
552,6041507.808721602
554,6041776.58391008
556,6041622.122720034
558,6041261.493817689
560,6041797.274490742
562,6041734.213975249
564,6040974.590898396
566,6041589.998464583
568,6041375.093879488
570,6041090.069332696
572,6041192.162960527
574,6041335.372574242
576,6041571.461435633
578,6041556.341290279
580,6041826.468732601
582,6041940.208949173
584,6041484.825104516
586,6041375.761807098
588,6040823.069654101
590,6041119.157487367
592,6041474.740244695
594,6041271.466155392
596,6041078.668193944
598,6041294.213799845
600,6041345.035975406
602,6041446.4063310865
604,6041553.398690472
606,6041516.461516742
608,6041519.6922435425
610,6041810.173915625
612,6041723.77467287
614,6041545.036402731
616,6041572.558110702
618,6040462.47654137
620,6040482.593088639
622,6041394.724526666
624,6041112.394451058
626,6041505.494173361
628,6041638.834276501
630,6040785.80678797
632,6040529.555542331
634,6040850.049376577
636,6041085.421389675
638,6040929.419006835
640,6041474.573078103
642,6041738.85336447
644,6040843.874290519
646,6042948.4959126515
648,6043379.754030628
650,6041446.825006313
652,6041710.783336203
654,6041397.691752704
656,6041151.205995371
658,6041511.430518977
660,6041551.262268408
662,6041377.486709631
664,6041484.487439459
666,6041443.750089355
668,6041107.991048773
670,6041563.760999665
672,6041267.2062764475
674,6041163.483843256
676,6041536.128915831
678,6041346.24345349
680,6041150.289956291
682,6041410.314774397
684,6041560.064687422
686,6041447.9187860545
688,6040955.81893969
690,6041315.875338955
692,6041350.307975556
694,6041850.281893436
696,6041497.367671758
698,6041199.302168769
700,6041453.64627868
702,6041828.693192877
704,6040860.42770877
706,6041675.622792104
708,6041571.681644926
710,6041346.454989626
712,6041546.234560798
714,6041858.824615336
716,6041142.5820534965
718,6041286.403162461
720,6041703.1207177285
722,6041807.585318082
724,6041329.8607438
726,6041296.890614847
728,6041527.288726995
730,6041723.792105585
732,6041192.330811199
734,6041150.1016538385
736,6041704.398114255
738,6041255.137810724
740,6041344.973276121
742,6041402.044472554
744,6041509.896928869
746,6041611.23472158
748,6041281.529689905
750,6041392.455248062
752,6040981.1977447625
754,6041295.389267499
756,6041239.4416478425
758,6041271.659960353
760,6041533.037164191
762,6033170.558480699
764,5997309.196911797
766,5919816.184365741
768,5789128.623488824
770,5591227.92157777
772,5331562.926099856
774,5030824.995786329
776,4699258.250554136
778,4346757.545140255
780,3987299.429810042
782,3631624.3336451664
784,3286378.269654552
786,2964560.482130975
788,2677357.907088312
790,2431812.978824052
792,2227005.630354121
794,2056991.6675400746
796,1912122.286436368
798,1783069.2196949078
800,1663500.214270693
802,1548744.6415391257
804,1440089.3704584274
806,1338355.7413583586
808,1246002.4351940232
810,1164641.9993123675
812,1094313.8934356393
814,1033315.1507154639
816,979276.3012057306
818,928884.3489745458
820,880151.1850921786
822,831067.2044299131
824,781134.7456778135
826,731197.4373941015
828,682133.9307999852
830,635157.065687494
832,590767.9318637582
834,549817.9262336656
836,511926.9827578021
838,476508.58827418834
840,442988.8091633684
842,410512.7161371145
844,378885.83903410326
846,347759.8550145639
848,317145.038704723
850,286997.5341464601
852,257814.11993689087
854,229635.74166079867
856,202883.51438950063
858,177548.2583061767
860,153963.78261275878
862,132580.8515415665
864,113288.53811543316
866,96239.40874515912
868,81413.00428997858
870,68826.20859127876
872,58133.754868965356
874,49160.33286656182
876,41666.7751322839
878,35497.06635140222
880,30295.018445045593
882,25695.68578759554
884,21591.37521759164
886,17852.922836174053
888,14389.809163301048
890,11160.697668091325
892,8122.388938503005
894,5540.658797514908
896,3560.8201047046186
898,2067.8082667675035
900,1036.1379326991748
902,389.7262820249188
904,91.05201843704549
906,33.85408597934234
908,10.175341117526877
910,0.4798427012002451
912,-3.482973111878331
914,2.393407046365594
916,-5.54246237681494
918,-0.29287613119402345
920,-2.3379566926154904
922,4.289920058427215
924,0.9442159283387628
926,-2.7336637591896857
928,1.0006701908683229
930,-1.3057717257606596
932,1.5404292547943992
934,4.001179039549514
936,-1.414773894536123
938,3.248233771030033
940,0.4896997775772239
942,3.269850699677664
944,0.8757233738836303
946,1.835094323646329
948,-1.5911823412967454
950,0.22756291881490442
952,1.4645588048001232
954,3.043621082643513
956,0.027056986644400358
958,-0.10659459427895207
960,-0.7023202398106899
962,-2.0064684457895754
964,-3.0020412361544704
966,-2.2327748367148637
968,-2.2451702637504916
970,3.087313082970052
972,-1.474238603491238
974,-1.3750943045639343
976,0.09099228775895851
978,-4.359327552662422
980,0.17173412192045567
982,0.5883557203648353
984,-0.6237451035931326
986,0.24693956783995888
988,-1.1733774690472267
990,1.089032408027303
992,0.5823660453244227
994,0.22070109661222787
996,-2.4283186811864717
998,-1.410528741235163
