wave,flux
336,3842.269682294068
338,7328.042430198498
340,11523.144524124273
342,16252.145801793795
344,21492.313655872138
346,28257.630049626558
348,37192.10234343993
350,47583.750658240664
352,59420.21901978921
354,73616.1679495216
356,90635.08313693883
358,110743.10258932624
360,133846.59429834608
362,159404.94743559917
364,186819.25376884436
366,216759.595555102
368,250820.8046717982
370,289621.419068459
372,335367.025790859
374,393588.33955346065
376,476625.4210769819
378,605287.703684942
380,811663.5778954847
382,1133557.451813591
384,1595838.7185808
386,2183768.627338176
388,2836617.8253480825
390,3474395.4149224455
392,4040290.0722670206
394,4515415.385608694
396,4914412.07478127
398,5268895.736678433
400,5576901.819681414
402,5821274.083902936
404,5965419.591693755
406,6028319.119374648
408,6041502.401791728
410,6041600.641373636
412,6041470.990639158
414,6041662.9822303215
416,6041302.193766794
418,6041389.9597449945
420,6041554.38240656
422,6041626.9498390835
424,6041552.431147643
426,6040956.4780952465
428,6041459.797946841
430,6041304.895354649
432,6041421.177998973
434,6040901.71496293
436,6041151.445656872
438,6041674.683563924
440,6041163.988685339
442,6041286.628285636
444,6041413.118451916
446,6041271.742872567
448,6041185.895414668
450,6041295.052401243
452,6041277.243302768
454,6041533.499260064
456,6041244.532295052
458,6041215.371230866
460,6041320.788133649
462,6041473.4681302495
464,6041178.778734017
466,6041478.7039176235
468,6040992.003235482
470,6041710.931918288
472,6041142.956145167
474,6041470.995807233
476,6041098.001532256
478,6041377.544252915
480,6041488.23917255
482,6041241.782075532
484,6041656.203703415
486,6041362.726419091
488,6041688.953895216
490,6041786.330928662
492,6041311.079896891
494,6041555.479397091
496,6041430.587347527
498,6041241.838050634
500,6041333.019913261
502,6041537.679192908
504,6041303.656171068
506,6041554.780833801
508,6041381.135292369
510,6041303.376358605
512,6041243.666705189
514,6041426.481684975
516,6041363.065136217
518,6041367.889974162
520,6041399.029229788
522,6041555.663602035
524,6041464.065995748
526,6041461.269267742
528,6041514.080470741
530,6041632.552036235
532,6041648.879896723
534,6041525.863610915
536,6041844.479227581
538,6041440.421329434
540,6041363.687112903
542,6041469.986746381
544,6041209.689644143
546,6041388.896498448
548,6041526.586420663
550,6041441.366893168
552,6041405.966065262
554,6041440.700860695
556,6041112.913592109
558,6041481.954081133
560,6041772.733587565
562,6041421.028063717
564,6041212.68087515
566,6041431.288299078
568,6041135.807599447
570,6041514.611984989
572,6041432.537559388
574,6041586.968622261
576,6041441.5895731645
578,6041262.544938047
580,6041784.899748477
582,6041823.962925205
584,6041167.887096726
586,6041607.054665498
588,6041625.260926958
590,6041156.51608777
592,6040940.213890202
594,6040972.398196636
596,6041260.197635097
598,6041722.8224409735
600,6041204.552809373
602,6041637.1892773565
604,6041887.12335236
606,6041227.855544961
608,6041282.14517241
610,6041517.924060072
612,6041668.698084311
614,6041627.167568852
616,6041337.82449779
618,6041076.558447409
620,6041481.347835498
622,6042057.0963270245
624,6041569.205843977
626,6040077.055182211
628,6039708.447699416
630,6040694.19470213
632,6040378.71391716
634,6040785.027626053
636,6041513.321888887
638,6040254.965825924
640,6040368.418804027
642,6041488.864447858
644,6040940.815380628
646,6040425.124219292
648,6040130.9271545075
650,6039716.813872153
652,6042409.321269602
654,6045404.02703574
656,6042708.76364591
658,6040337.487551961
660,6041337.9853982655
662,6041477.239819321
664,6041278.0600571325
666,6042246.4677443355
668,6042891.487213064
670,6042358.233692901
672,6040971.362193538
674,6040477.000561039
676,6041493.00412546
678,6041417.858906801
680,6040302.078470113
682,6040619.043180337
684,6041514.174978219
686,6041337.56849429
688,6040908.340467452
690,6041313.526582955
692,6041350.182760114
694,6041850.274237771
696,6041497.367094923
698,6041199.302116295
700,6041453.6462734025
702,6041828.693192333
704,6040860.427708716
706,6041675.622792099
708,6041571.681644926
710,6041346.454989626
712,6041546.234560798
714,6041858.824615336
716,6041142.5820534965
718,6041286.403162461
720,6041703.1207177285
722,6041807.585318082
724,6041329.8607438
726,6041296.890614847
728,6041527.288726995
730,6041723.792105585
732,6041192.330811199
734,6041150.1016538385
736,6041704.398114255
738,6041255.137810724
740,6041344.973276121
742,6041402.044472554
744,6041509.896928869
746,6041611.23472158
748,6041281.529689905
750,6041392.455248062
752,6040981.1977447625
754,6041295.389267499
756,6041239.4416478425
758,6041271.659960353
760,6041533.037164191
762,6033170.558480699
764,5997309.196911797
766,5919816.184365741
768,5789128.623488824
770,5591227.92157777
772,5331562.926099856
774,5030824.995786329
776,4699258.250554136
778,4346757.545140255
780,3987299.429810042
782,3631624.3336451664
784,3286378.269654552
786,2964560.482130975
788,2677357.907088312
790,2431812.978824052
792,2227005.630354121
794,2056991.6675400746
796,1912122.286436368
798,1783069.2196949078
800,1663500.214270693
802,1548744.6415391257
804,1440089.3704584274
806,1338355.7413583586
808,1246002.4351940232
810,1164641.9993123675
812,1094313.8934356393
814,1033315.1507154639
816,979276.3012057306
818,928884.3489745458
820,880151.1850921786
822,831067.2044299131
824,781134.7456778135
826,731197.4373941015
828,682133.9307999852
830,635157.065687494
832,590767.9318637582
834,549817.9262336656
836,511926.9827578021
838,476508.58827418834
840,442988.8091633684
842,410512.7161371145
844,378885.83903410326
846,347759.8550145639
848,317145.038704723
850,286997.5341464601
852,257814.11993689087
854,229635.74166079867
856,202883.51438950063
858,177548.2583061767
860,153963.78261275878
862,132580.8515415665
864,113288.53811543316
866,96239.40874515912
868,81413.00428997858
870,68826.20859127876
872,58133.754868965356
874,49160.33286656182
876,41666.7751322839
878,35497.06635140222
880,30295.018445045593
882,25695.68578759554
884,21591.37521759164
886,17852.922836174053
888,14389.809163301048
890,11160.697668091325
892,8122.388938503005
894,5540.658797514908
896,3560.8201047046186
898,2067.8082667675035
900,1036.1379326991748
902,389.7262820249188
904,91.05201843704549
906,33.85408597934234
908,10.175341117526877
910,0.4798427012002451
912,-3.482973111878331
914,2.393407046365594
916,-5.54246237681494
918,-0.29287613119402345
920,-2.3379566926154904
922,4.289920058427215
924,0.9442159283387628
926,-2.7336637591896857
928,1.0006701908683229
930,-1.3057717257606596
932,1.5404292547943992
934,4.001179039549514
936,-1.414773894536123
938,3.248233771030033
940,0.4896997775772239
942,3.269850699677664
944,0.8757233738836303
946,1.835094323646329
948,-1.5911823412967454
950,0.22756291881490442
952,1.4645588048001232
954,3.043621082643513
956,0.027056986644400358
958,-0.10659459427895207
960,-0.7023202398106899
962,-2.0064684457895754
964,-3.0020412361544704
966,-2.2327748367148637
968,-2.2451702637504916
970,3.087313082970052
972,-1.474238603491238
974,-1.3750943045639343
976,0.09099228775895851
978,-4.359327552662422
980,0.17173412192045567
982,0.5883557203648353
984,-0.6237451035931326
986,0.24693956783995888
988,-1.1733774690472267
990,1.089032408027303
992,0.5823660453244227
994,0.22070109661222787
996,-2.4283186811864717
998,-1.410528741235163
