wave,flux
336,240.4557545951178
338,440.26349539282455
340,740.1262684931509
342,1204.3097257679076
344,1838.710293920506
346,2661.5764364621746
348,3667.944638534828
350,4847.467539582166
352,6194.108382466157
354,7734.9232757726095
356,9483.731994087502
358,11514.185639427145
360,13910.09790987323
362,16762.79476825935
364,20115.583231134373
366,23985.10294642923
368,28520.997740488303
370,33857.944110486984
372,40247.10952674101
374,48181.633759693745
376,58636.98293260175
378,72783.85609287395
380,91706.77993785989
382,116276.21768234174
384,147219.6888971443
386,185216.82791908356
388,231076.14557893376
390,285800.34730023175
392,351177.2345817621
394,428328.7765928424
396,516741.09357455
398,614208.5238263882
400,717469.3493163179
402,823755.7970115527
404,930865.727795013
406,1038194.0128657061
408,1145357.5145433638
410,1251156.335871013
412,1352232.800039443
414,1444995.938705063
416,1529098.1847525863
418,1608519.2240762583
420,1690570.839657136
422,1783387.4161415428
424,1893404.4002939037
426,2024636.8517644857
428,2177446.139378603
430,2349697.502904526
432,2535366.3719782843
434,2728612.3264919193
436,2925869.7956092483
438,3125673.986674839
440,3331666.315859869
442,3546313.8618303547
444,3772897.4612281104
446,4011935.2217343017
448,4264807.063463533
450,4529908.675935749
452,4807128.617378033
454,5087095.470720594
456,5352940.548399794
458,5587646.455676181
460,5776578.00898551
462,5906400.77729745
464,5984840.212358439
466,6024801.468868335
468,6039467.835263146
470,6041217.314633868
472,6041633.881770083
474,6040763.162068835
476,6041461.463691888
478,6041712.199797961
480,6041023.934127729
482,6041172.463714245
484,6041234.157522826
486,6041240.35499828
488,6041448.586637168
490,6041457.148328172
492,6041085.593444436
494,6041619.565855808
496,6041679.1473015295
498,6041225.461047953
500,6041450.628654157
502,6042117.396967315
504,6041205.303530638
506,6041622.874597406
508,6041034.150261056
510,6041953.215618441
512,6041251.052125179
514,6041169.065572787
516,6041270.598901194
518,6041296.183081839
520,6041366.1542098485
522,6041186.503624421
524,6041113.73590982
526,6041384.336723996
528,6041691.22629876
530,6041538.072707816
532,6041293.917837655
534,6041517.905700213
536,6041877.38632473
538,6041575.764002164
540,6041339.53859513
542,6041632.550834069
544,6041726.456957848
546,6041226.09672101
548,6041247.454275373
550,6041403.351119433
552,6041156.87412696
554,6041315.873788795
556,6041625.354371665
558,6041611.182090778
560,6041349.559523348
562,6041039.471425071
564,6041396.724768703
566,6041493.8100181185
568,6041170.492027174
570,6041540.161307696
572,6041763.281330455
574,6041198.506816546
576,6041146.168853358
578,6041539.446918461
580,6041694.909690525
582,6041745.674511994
584,6041801.346741044
586,6041553.359175734
588,6041511.058219268
590,6041937.254367805
592,6041469.514609044
594,6041113.301029445
596,6041639.943514802
598,6041739.435391178
600,6041620.318757771
602,6041173.077383106
604,6041327.381890778
606,6041789.889568234
608,6041278.239162127
610,6041295.831211715
612,6041366.691496222
614,6041245.849191283
616,6041208.234326052
618,6040895.531814312
620,6042041.944498297
622,6042982.518173644
624,6041071.199233646
626,6040338.8415750265
628,6041102.197525076
630,6041809.151498724
632,6041775.395290159
634,6041269.24620225
636,6040751.748845105
638,6040780.299604974
640,6042208.23131495
642,6042317.344506234
644,6039108.710510208
646,6040164.444199088
648,6042916.429482247
650,6040697.901520904
652,6041538.8579662815
654,6041381.773750957
656,6041133.13017657
658,6041280.536707225
660,6041544.623880751
662,6041377.625102512
664,6041484.514275803
666,6041443.751955798
668,6041107.9911352545
670,6041563.761001838
672,6041267.206276388
674,6041163.483843245
676,6041536.1289158305
678,6041346.24345349
680,6041150.289956291
682,6041410.314774397
684,6041560.064687422
686,6041447.9187860545
688,6040955.81893969
690,6041315.875338955
692,6041350.307975556
694,6041850.281893436
696,6041497.367671758
698,6041199.302168769
700,6041453.64627868
702,6041828.693192877
704,6040860.42770877
706,6041675.622792104
708,6041571.681644926
710,6041346.454989626
712,6041546.234560798
714,6041858.824615336
716,6041142.5820534965
718,6041286.403162461
720,6041703.1207177285
722,6041807.585318082
724,6041329.8607438
726,6041296.890614847
728,6041527.288726995
730,6041723.792105585
732,6041192.330811199
734,6041150.1016538385
736,6041704.398114255
738,6041255.137810724
740,6041344.973276121
742,6041402.044472554
744,6041509.896928869
746,6041611.23472158
748,6041281.529689905
750,6041392.455248062
752,6040981.1977447625
754,6041295.389267499
756,6041239.4416478425
758,6041271.659960353
760,6041533.037164191
762,6033170.558480699
764,5997309.196911797
766,5919816.184365741
768,5789128.623488824
770,5591227.92157777
772,5331562.926099856
774,5030824.995786329
776,4699258.250554136
778,4346757.545140255
780,3987299.429810042
782,3631624.3336451664
784,3286378.269654552
786,2964560.482130975
788,2677357.907088312
790,2431812.978824052
792,2227005.630354121
794,2056991.6675400746
796,1912122.286436368
798,1783069.2196949078
800,1663500.214270693
802,1548744.6415391257
804,1440089.3704584274
806,1338355.7413583586
808,1246002.4351940232
810,1164641.9993123675
812,1094313.8934356393
814,1033315.1507154639
816,979276.3012057306
818,928884.3489745458
820,880151.1850921786
822,831067.2044299131
824,781134.7456778135
826,731197.4373941015
828,682133.9307999852
830,635157.065687494
832,590767.9318637582
834,549817.9262336656
836,511926.9827578021
838,476508.58827418834
840,442988.8091633684
842,410512.7161371145
844,378885.83903410326
846,347759.8550145639
848,317145.038704723
850,286997.5341464601
852,257814.11993689087
854,229635.74166079867
856,202883.51438950063
858,177548.2583061767
860,153963.78261275878
862,132580.8515415665
864,113288.53811543316
866,96239.40874515912
868,81413.00428997858
870,68826.20859127876
872,58133.754868965356
874,49160.33286656182
876,41666.7751322839
878,35497.06635140222
880,30295.018445045593
882,25695.68578759554
884,21591.37521759164
886,17852.922836174053
888,14389.809163301048
890,11160.697668091325
892,8122.388938503005
894,5540.658797514908
896,3560.8201047046186
898,2067.8082667675035
900,1036.1379326991748
902,389.7262820249188
904,91.05201843704549
906,33.85408597934234
908,10.175341117526877
910,0.4798427012002451
912,-3.482973111878331
914,2.393407046365594
916,-5.54246237681494
918,-0.29287613119402345
920,-2.3379566926154904
922,4.289920058427215
924,0.9442159283387628
926,-2.7336637591896857
928,1.0006701908683229
930,-1.3057717257606596
932,1.5404292547943992
934,4.001179039549514
936,-1.414773894536123
938,3.248233771030033
940,0.4896997775772239
942,3.269850699677664
944,0.8757233738836303
946,1.835094323646329
948,-1.5911823412967454
950,0.22756291881490442
952,1.4645588048001232
954,3.043621082643513
956,0.027056986644400358
958,-0.10659459427895207
960,-0.7023202398106899
962,-2.0064684457895754
964,-3.0020412361544704
966,-2.2327748367148637
968,-2.2451702637504916
970,3.087313082970052
972,-1.474238603491238
974,-1.3750943045639343
976,0.09099228775895851
978,-4.359327552662422
980,0.17173412192045567
982,0.5883557203648353
984,-0.6237451035931326
986,0.24693956783995888
988,-1.1733774690472267
990,1.089032408027303
992,0.5823660453244227
994,0.22070109661222787
996,-2.4283186811864717
998,-1.410528741235163
