wave,flux
336,3.844528042094749
338,-2.0300682388690823
340,72.46493673959478
342,1638.7199824209397
344,6498.315269847904
346,13834.110693851047
348,22743.897577978118
350,32623.855698500392
352,42199.224797509676
354,52088.25677953826
356,63499.89856914318
358,76409.37438196687
360,90330.69967046163
362,106095.77393338225
364,125251.07699304786
366,148688.49011393212
368,176491.45482502316
370,207811.25344040227
372,240390.7496643897
374,271607.4858718808
376,301684.686662153
378,331752.68734594533
380,362301.6524210689
382,395441.8252696057
384,436847.54332168703
386,493305.0522292741
388,574157.8165592819
390,701909.6712076834
392,931789.9900346164
394,1352398.763556368
396,2059385.6615848534
398,3068621.372715959
400,4191963.0549598457
402,5158496.908242738
404,5742307.212631375
406,5989810.16865667
408,6041216.377085344
410,6041085.54972258
412,6041420.511784704
414,6040996.930322717
416,6041363.447993664
418,6041589.318989195
420,6041256.000446257
422,6041650.806973129
424,6041011.047415088
426,6041609.819797584
428,6041430.096416909
430,6041318.3392775245
432,6041271.1603058055
434,6041417.539460621
436,6041193.9786554035
438,6040976.016149758
440,6041365.3223788105
442,6040960.87136248
444,6041598.7138169445
446,6041203.478975396
448,6041305.099408186
450,6041440.597948795
452,6041703.533558295
454,6041361.542183258
456,6041320.245581316
458,6040866.30821624
460,6041524.5320042195
462,6041150.691508718
464,6041789.78832214
466,6041251.694437694
468,6041377.553358299
470,6041181.556080219
472,6041566.165515144
474,6041127.545535181
476,6041048.864602439
478,6041410.147166966
480,6041454.562797023
482,6040931.352545547
484,6041145.271276701
486,6041241.802822832
488,6041559.015465543
490,6041273.793204422
492,6041676.11052283
494,6041185.023225998
496,6041837.517835126
498,6041467.491829473
500,6041266.966059389
502,6041435.640558067
504,6041518.123356021
506,6041257.627842529
508,6041383.207855931
510,6041485.761524033
512,6041369.924247165
514,6041896.451969973
516,6041348.482084345
518,6040919.513344919
520,6041409.7142551495
522,6041489.879231235
524,6041328.25966633
526,6041503.389648957
528,6041408.942317993
530,6041100.513765488
532,6041495.99203012
534,6041382.648441531
536,6041679.225823018
538,6041266.941010493
540,6041535.145581621
542,6041511.886149654
544,6041613.679028757
546,6041266.67830014
548,6041331.337328204
550,6041406.056511793
552,6041409.939391203
554,6041587.835757876
556,6041501.735201291
558,6041215.503617155
560,6041226.678164768
562,6041288.247744715
564,6041685.091595168
566,6041495.477893515
568,6041811.674003738
570,6041594.140412153
572,6041531.444861268
574,6041699.977282156
576,6041748.731772991
578,6041316.306226272
580,6040787.195160608
582,6040828.02219578
584,6041165.030663049
586,6041178.834088732
588,6041495.218135996
590,6041841.745530902
592,6041420.090300108
594,6041087.065193312
596,6041351.147935408
598,6041329.874410517
600,6041291.218616885
602,6041494.296232806
604,6041588.2819628315
606,6041438.591901255
608,6041378.480286195
610,6041332.993099975
612,6041290.730447631
614,6041354.222831284
616,6041311.948624347
618,6040621.831407197
620,6040980.5029831845
622,6041714.52095403
624,6040990.556311664
626,6040958.1892844215
628,6040233.25114644
630,6039148.743730014
632,6041473.851161019
634,6042735.27521268
636,6041137.771504485
638,6039647.462919631
640,6040266.583466173
642,6041396.395162603
644,6040722.419264177
646,6041203.601338177
648,6042064.914220438
650,6041019.27253098
652,6042030.363912429
654,6044298.756038049
656,6043268.745008642
658,6041303.1353056645
660,6040348.74779436
662,6039689.107653035
664,6040598.462122877
666,6042569.935048068
668,6039557.702623353
670,6038042.954775799
672,6041226.029916871
674,6040898.410909952
676,6041512.801721736
678,6041344.599576796
680,6041150.186773458
682,6041410.308779277
684,6041560.064358792
686,6041447.918768834
688,6040955.818938813
690,6041315.87533891
692,6041350.307975554
694,6041850.281893436
696,6041497.367671758
698,6041199.302168769
700,6041453.64627868
702,6041828.693192877
704,6040860.42770877
706,6041675.622792104
708,6041571.681644926
710,6041346.454989626
712,6041546.234560798
714,6041858.824615336
716,6041142.5820534965
718,6041286.403162461
720,6041703.1207177285
722,6041807.585318082
724,6041329.8607438
726,6041296.890614847
728,6041527.288726995
730,6041723.792105585
732,6041192.330811199
734,6041150.1016538385
736,6041704.398114255
738,6041255.137810724
740,6041344.973276121
742,6041402.044472554
744,6041509.896928869
746,6041611.23472158
748,6041281.529689905
750,6041392.455248062
752,6040981.1977447625
754,6041295.389267499
756,6041239.4416478425
758,6041271.659960353
760,6041533.037164191
762,6033170.558480699
764,5997309.196911797
766,5919816.184365741
768,5789128.623488824
770,5591227.92157777
772,5331562.926099856
774,5030824.995786329
776,4699258.250554136
778,4346757.545140255
780,3987299.429810042
782,3631624.3336451664
784,3286378.269654552
786,2964560.482130975
788,2677357.907088312
790,2431812.978824052
792,2227005.630354121
794,2056991.6675400746
796,1912122.286436368
798,1783069.2196949078
800,1663500.214270693
802,1548744.6415391257
804,1440089.3704584274
806,1338355.7413583586
808,1246002.4351940232
810,1164641.9993123675
812,1094313.8934356393
814,1033315.1507154639
816,979276.3012057306
818,928884.3489745458
820,880151.1850921786
822,831067.2044299131
824,781134.7456778135
826,731197.4373941015
828,682133.9307999852
830,635157.065687494
832,590767.9318637582
834,549817.9262336656
836,511926.9827578021
838,476508.58827418834
840,442988.8091633684
842,410512.7161371145
844,378885.83903410326
846,347759.8550145639
848,317145.038704723
850,286997.5341464601
852,257814.11993689087
854,229635.74166079867
856,202883.51438950063
858,177548.2583061767
860,153963.78261275878
862,132580.8515415665
864,113288.53811543316
866,96239.40874515912
868,81413.00428997858
870,68826.20859127876
872,58133.754868965356
874,49160.33286656182
876,41666.7751322839
878,35497.06635140222
880,30295.018445045593
882,25695.68578759554
884,21591.37521759164
886,17852.922836174053
888,14389.809163301048
890,11160.697668091325
892,8122.388938503005
894,5540.658797514908
896,3560.8201047046186
898,2067.8082667675035
900,1036.1379326991748
902,389.7262820249188
904,91.05201843704549
906,33.85408597934234
908,10.175341117526877
910,0.4798427012002451
912,-3.482973111878331
914,2.393407046365594
916,-5.54246237681494
918,-0.29287613119402345
920,-2.3379566926154904
922,4.289920058427215
924,0.9442159283387628
926,-2.7336637591896857
928,1.0006701908683229
930,-1.3057717257606596
932,1.5404292547943992
934,4.001179039549514
936,-1.414773894536123
938,3.248233771030033
940,0.4896997775772239
942,3.269850699677664
944,0.8757233738836303
946,1.835094323646329
948,-1.5911823412967454
950,0.22756291881490442
952,1.4645588048001232
954,3.043621082643513
956,0.027056986644400358
958,-0.10659459427895207
960,-0.7023202398106899
962,-2.0064684457895754
964,-3.0020412361544704
966,-2.2327748367148637
968,-2.2451702637504916
970,3.087313082970052
972,-1.474238603491238
974,-1.3750943045639343
976,0.09099228775895851
978,-4.359327552662422
980,0.17173412192045567
982,0.5883557203648353
984,-0.6237451035931326
986,0.24693956783995888
988,-1.1733774690472267
990,1.089032408027303
992,0.5823660453244227
994,0.22070109661222787
996,-2.4283186811864717
998,-1.410528741235163
