wave,flux
336,2026.5977748531614
338,3080.0295987951354
340,4813.002632075784
342,6615.686927809824
344,8578.553778938676
346,11405.570368592707
348,14792.580101666708
350,18982.48427991534
352,24247.511063182057
354,29807.68349465496
356,35408.262412402364
358,41776.182485460595
360,49203.89651834524
362,57099.092586866806
364,65387.65330556453
366,75046.3089448443
368,87150.80285684472
370,102501.23208589957
372,122799.49749409381
374,153523.31191836146
376,206746.79771701546
378,294997.8689154414
380,421685.1065378783
382,576782.0409117427
384,740891.0238817935
386,899324.301616706
388,1054424.589473898
390,1226229.4329149683
392,1431477.0256122875
394,1655819.5215382096
396,1865890.3564600737
398,2044691.6662394349
400,2220117.680047072
402,2430280.421804604
404,2692907.2356954906
406,2995924.7575550214
408,3322951.668828592
410,3660264.3022306846
412,3977162.932512799
414,4220183.181813278
416,4338606.267791168
418,4329650.1343206875
420,4249884.059290501
422,4188857.8377818074
424,4216401.148937522
426,4355708.342352538
428,4581615.457269065
430,4849972.313355262
432,5125906.594549836
434,5384269.505702496
436,5609170.933555534
438,5792227.247421782
440,5919767.073389351
442,5994132.959095683
444,6030004.925454339
446,6041171.065992789
448,6041128.198680371
450,6041530.286362538
452,6041225.1301240865
454,6041268.187620402
456,6041916.802022294
458,6041352.479548182
460,6041675.148156971
462,6041707.514601252
464,6041550.476980199
466,6041548.288206217
468,6041364.169814394
470,6040994.696008696
472,6041304.084634651
474,6041598.5138911735
476,6041618.435386747
478,6041310.563863215
480,6041663.983446601
482,6040995.747230618
484,6041249.0663542785
486,6041531.366690304
488,6041537.49930712
490,6041280.56233095
492,6041399.7732510725
494,6041342.123654521
496,6041622.802443625
498,6041458.190996387
500,6041804.188118504
502,6041596.585504987
504,6040919.34574108
506,6041351.466244312
508,6040893.90392009
510,6040792.031182496
512,6041524.287503489
514,6041617.030632604
516,6041135.675133888
518,6041363.838962833
520,6041394.120349389
522,6041639.490973983
524,6041097.818193022
526,6041155.206072274
528,6041398.870381095
530,6041303.851763975
532,6041324.09003256
534,6041679.137226933
536,6041541.154024976
538,6041449.8031912
540,6041665.761845582
542,6041578.526047913
544,6041554.257077908
546,6041398.418100442
548,6041709.895683493
550,6041459.044140433
552,6041125.767427913
554,6041336.416713702
556,6041056.832544996
558,6041430.038413856
560,6041581.273270233
562,6041140.323981664
564,6041447.091159631
566,6041326.019053998
568,6041718.798009823
570,6041519.9958461635
572,6042028.607819202
574,6041795.538736571
576,6041053.355431725
578,6041719.83634002
580,6041933.230133062
582,6041287.232473405
584,6041280.375141798
586,6041203.564636531
588,6041766.286189577
590,6041870.840604961
592,6041313.429644941
594,6041541.69097819
596,6042054.181032968
598,6041254.83713294
600,6041452.843862769
602,6041526.895307137
604,6041303.698965993
606,6041381.837555922
608,6041626.2527380185
610,6041565.023572729
612,6041384.440306639
614,6041377.27876198
616,6041358.520740519
618,6040801.050927923
620,6040955.930909971
622,6041239.364082596
624,6040528.955391176
626,6041477.847200662
628,6042084.733415384
630,6041180.71085438
632,6041482.052253537
634,6041693.152947595
636,6041598.374211187
638,6042287.333924677
640,6041921.395445787
642,6041511.724954853
644,6042897.9127349565
646,6042689.199420636
648,6040905.235526379
650,6040129.6413718825
652,6040479.9743643645
654,6041398.163970955
656,6041148.735657652
658,6041511.2713876255
660,6041551.25769325
662,6041377.486805012
664,6041484.487457955
666,6041443.750090642
668,6041107.991048832
670,6041563.760999666
672,6041267.206276448
674,6041163.483843256
676,6041536.128915831
678,6041346.24345349
680,6041150.289956291
682,6041410.314774397
684,6041560.064687422
686,6041447.9187860545
688,6040955.81893969
690,6041315.875338955
692,6041350.307975556
694,6041850.281893436
696,6041497.367671758
698,6041199.302168769
700,6041453.64627868
702,6041828.693192877
704,6040860.42770877
706,6041675.622792104
708,6041571.681644926
710,6041346.454989626
712,6041546.234560798
714,6041858.824615336
716,6041142.5820534965
718,6041286.403162461
720,6041703.1207177285
722,6041807.585318082
724,6041329.8607438
726,6041296.890614847
728,6041527.288726995
730,6041723.792105585
732,6041192.330811199
734,6041150.1016538385
736,6041704.398114255
738,6041255.137810724
740,6041344.973276121
742,6041402.044472554
744,6041509.896928869
746,6041611.23472158
748,6041281.529689905
750,6041392.455248062
752,6040981.1977447625
754,6041295.389267499
756,6041239.4416478425
758,6041271.659960353
760,6041533.037164191
762,6033170.558480699
764,5997309.196911797
766,5919816.184365741
768,5789128.623488824
770,5591227.92157777
772,5331562.926099856
774,5030824.995786329
776,4699258.250554136
778,4346757.545140255
780,3987299.429810042
782,3631624.3336451664
784,3286378.269654552
786,2964560.482130975
788,2677357.907088312
790,2431812.978824052
792,2227005.630354121
794,2056991.6675400746
796,1912122.286436368
798,1783069.2196949078
800,1663500.214270693
802,1548744.6415391257
804,1440089.3704584274
806,1338355.7413583586
808,1246002.4351940232
810,1164641.9993123675
812,1094313.8934356393
814,1033315.1507154639
816,979276.3012057306
818,928884.3489745458
820,880151.1850921786
822,831067.2044299131
824,781134.7456778135
826,731197.4373941015
828,682133.9307999852
830,635157.065687494
832,590767.9318637582
834,549817.9262336656
836,511926.9827578021
838,476508.58827418834
840,442988.8091633684
842,410512.7161371145
844,378885.83903410326
846,347759.8550145639
848,317145.038704723
850,286997.5341464601
852,257814.11993689087
854,229635.74166079867
856,202883.51438950063
858,177548.2583061767
860,153963.78261275878
862,132580.8515415665
864,113288.53811543316
866,96239.40874515912
868,81413.00428997858
870,68826.20859127876
872,58133.754868965356
874,49160.33286656182
876,41666.7751322839
878,35497.06635140222
880,30295.018445045593
882,25695.68578759554
884,21591.37521759164
886,17852.922836174053
888,14389.809163301048
890,11160.697668091325
892,8122.388938503005
894,5540.658797514908
896,3560.8201047046186
898,2067.8082667675035
900,1036.1379326991748
902,389.7262820249188
904,91.05201843704549
906,33.85408597934234
908,10.175341117526877
910,0.4798427012002451
912,-3.482973111878331
914,2.393407046365594
916,-5.54246237681494
918,-0.29287613119402345
920,-2.3379566926154904
922,4.289920058427215
924,0.9442159283387628
926,-2.7336637591896857
928,1.0006701908683229
930,-1.3057717257606596
932,1.5404292547943992
934,4.001179039549514
936,-1.414773894536123
938,3.248233771030033
940,0.4896997775772239
942,3.269850699677664
944,0.8757233738836303
946,1.835094323646329
948,-1.5911823412967454
950,0.22756291881490442
952,1.4645588048001232
954,3.043621082643513
956,0.027056986644400358
958,-0.10659459427895207
960,-0.7023202398106899
962,-2.0064684457895754
964,-3.0020412361544704
966,-2.2327748367148637
968,-2.2451702637504916
970,3.087313082970052
972,-1.474238603491238
974,-1.3750943045639343
976,0.09099228775895851
978,-4.359327552662422
980,0.17173412192045567
982,0.5883557203648353
984,-0.6237451035931326
986,0.24693956783995888
988,-1.1733774690472267
990,1.089032408027303
992,0.5823660453244227
994,0.22070109661222787
996,-2.4283186811864717
998,-1.410528741235163
