wave,flux
336,673.6059433443531
338,1080.5552445382473
340,1602.3167845677026
342,2318.1127192430963
344,3217.314635313241
346,4297.529783960228
348,5643.02233832934
350,7255.1748604542945
352,9075.650071869348
354,11186.157587072303
356,13693.861515137874
358,16575.081200901826
360,19799.72268806325
362,23437.264663145652
364,27601.694306961923
366,32447.92056383713
368,38331.0002230139
370,45833.568013215794
372,55924.813437515644
374,70636.99138023706
376,92952.48672336184
378,125281.79735011504
380,167623.2964995424
382,217474.6549776981
384,272327.4101127572
386,331564.34583873366
388,396008.4153830106
390,467083.240777553
392,546333.6603502583
394,634459.3144805768
396,730965.2224766237
398,833206.1338673033
400,938234.5114663431
402,1044100.4685853812
404,1152204.5997516052
406,1264702.8076527915
408,1381976.9962330372
410,1499738.8052395214
412,1610823.574357417
414,1711434.940581366
416,1804665.5381938312
418,1900469.2338230405
420,2009661.4516856764
422,2137734.471039641
424,2284030.7461151793
426,2443306.754501151
428,2612346.3916809266
430,2790065.119237696
432,2975716.166591599
434,3171665.678575446
436,3378657.301793521
438,3600949.2191569023
440,3841451.5067755682
442,4102958.5537960473
444,4386202.037837573
446,4689932.856379159
448,5002407.940957001
450,5301339.714512325
452,5564521.800805715
454,5773056.719244301
456,5911214.75944282
458,5991352.1281592585
460,6029221.046522618
462,6040602.704916211
464,6041481.582515142
466,6041734.29229713
468,6041640.39188332
470,6041263.839362861
472,6041208.238351137
474,6041246.957183153
476,6041323.957123529
478,6040923.676410218
480,6041138.910634676
482,6041660.5148554295
484,6041372.234212159
486,6041826.621840158
488,6041609.663158044
490,6041632.8686588835
492,6041913.928437781
494,6041269.089331288
496,6041743.765106557
498,6041457.933198379
500,6041479.335760032
502,6040600.348159307
504,6041518.921844265
506,6041475.20744801
508,6041506.997728618
510,6041383.910367057
512,6040998.958105174
514,6041725.287942037
516,6041250.58105769
518,6041576.328220417
520,6041366.355232217
522,6041259.891752675
524,6041272.232524631
526,6041511.056337678
528,6041281.027768148
530,6041661.812894318
532,6041376.571171626
534,6041589.232879837
536,6041890.214072321
538,6041253.516743217
540,6041813.967058429
542,6041411.87303589
544,6041298.965409063
546,6041741.820090893
548,6041350.254818338
550,6041049.813682655
552,6041476.909908733
554,6041377.778771875
556,6041452.923051623
558,6041135.903226312
560,6041010.042278105
562,6041276.621348436
564,6041597.356868875
566,6041724.686768573
568,6041208.3027107455
570,6041331.003296229
572,6041432.780152116
574,6041350.2226417065
576,6041370.839663327
578,6041484.862782952
580,6041202.569618266
582,6040979.187656465
584,6041244.158039975
586,6041293.937999318
588,6041287.130108239
590,6041075.678914003
592,6040972.36306802
594,6041216.539311685
596,6041424.398514088
598,6041316.324471227
600,6041551.85422231
602,6041363.260555813
604,6041128.560168596
606,6041321.501470746
608,6041507.927101494
610,6041514.218132028
612,6041476.859864567
614,6041336.1235907255
616,6041339.012487302
618,6042321.667663044
620,6042081.301778328
622,6041155.337532578
624,6041892.116971943
626,6042399.512287811
628,6041743.2074313
630,6041158.68752002
632,6042584.806989703
634,6042574.280277578
636,6040880.945685548
638,6040861.2344602635
640,6042386.778080518
642,6042872.091346811
644,6041044.466797855
646,6042659.985038322
648,6044965.163882072
650,6041943.363957904
652,6040445.844331894
654,6041398.315549355
656,6041147.928993022
658,6041511.219424841
660,6041551.256199278
662,6041377.486836157
664,6041484.487463994
666,6041443.750091062
668,6041107.991048851
670,6041563.7609996665
672,6041267.206276448
674,6041163.483843256
676,6041536.128915831
678,6041346.24345349
680,6041150.289956291
682,6041410.314774397
684,6041560.064687422
686,6041447.9187860545
688,6040955.81893969
690,6041315.875338955
692,6041350.307975556
694,6041850.281893436
696,6041497.367671758
698,6041199.302168769
700,6041453.64627868
702,6041828.693192877
704,6040860.42770877
706,6041675.622792104
708,6041571.681644926
710,6041346.454989626
712,6041546.234560798
714,6041858.824615336
716,6041142.5820534965
718,6041286.403162461
720,6041703.1207177285
722,6041807.585318082
724,6041329.8607438
726,6041296.890614847
728,6041527.288726995
730,6041723.792105585
732,6041192.330811199
734,6041150.1016538385
736,6041704.398114255
738,6041255.137810724
740,6041344.973276121
742,6041402.044472554
744,6041509.896928869
746,6041611.23472158
748,6041281.529689905
750,6041392.455248062
752,6040981.1977447625
754,6041295.389267499
756,6041239.4416478425
758,6041271.659960353
760,6041533.037164191
762,6033170.558480699
764,5997309.196911797
766,5919816.184365741
768,5789128.623488824
770,5591227.92157777
772,5331562.926099856
774,5030824.995786329
776,4699258.250554136
778,4346757.545140255
780,3987299.429810042
782,3631624.3336451664
784,3286378.269654552
786,2964560.482130975
788,2677357.907088312
790,2431812.978824052
792,2227005.630354121
794,2056991.6675400746
796,1912122.286436368
798,1783069.2196949078
800,1663500.214270693
802,1548744.6415391257
804,1440089.3704584274
806,1338355.7413583586
808,1246002.4351940232
810,1164641.9993123675
812,1094313.8934356393
814,1033315.1507154639
816,979276.3012057306
818,928884.3489745458
820,880151.1850921786
822,831067.2044299131
824,781134.7456778135
826,731197.4373941015
828,682133.9307999852
830,635157.065687494
832,590767.9318637582
834,549817.9262336656
836,511926.9827578021
838,476508.58827418834
840,442988.8091633684
842,410512.7161371145
844,378885.83903410326
846,347759.8550145639
848,317145.038704723
850,286997.5341464601
852,257814.11993689087
854,229635.74166079867
856,202883.51438950063
858,177548.2583061767
860,153963.78261275878
862,132580.8515415665
864,113288.53811543316
866,96239.40874515912
868,81413.00428997858
870,68826.20859127876
872,58133.754868965356
874,49160.33286656182
876,41666.7751322839
878,35497.06635140222
880,30295.018445045593
882,25695.68578759554
884,21591.37521759164
886,17852.922836174053
888,14389.809163301048
890,11160.697668091325
892,8122.388938503005
894,5540.658797514908
896,3560.8201047046186
898,2067.8082667675035
900,1036.1379326991748
902,389.7262820249188
904,91.05201843704549
906,33.85408597934234
908,10.175341117526877
910,0.4798427012002451
912,-3.482973111878331
914,2.393407046365594
916,-5.54246237681494
918,-0.29287613119402345
920,-2.3379566926154904
922,4.289920058427215
924,0.9442159283387628
926,-2.7336637591896857
928,1.0006701908683229
930,-1.3057717257606596
932,1.5404292547943992
934,4.001179039549514
936,-1.414773894536123
938,3.248233771030033
940,0.4896997775772239
942,3.269850699677664
944,0.8757233738836303
946,1.835094323646329
948,-1.5911823412967454
950,0.22756291881490442
952,1.4645588048001232
954,3.043621082643513
956,0.027056986644400358
958,-0.10659459427895207
960,-0.7023202398106899
962,-2.0064684457895754
964,-3.0020412361544704
966,-2.2327748367148637
968,-2.2451702637504916
970,3.087313082970052
972,-1.474238603491238
974,-1.3750943045639343
976,0.09099228775895851
978,-4.359327552662422
980,0.17173412192045567
982,0.5883557203648353
984,-0.6237451035931326
986,0.24693956783995888
988,-1.1733774690472267
990,1.089032408027303
992,0.5823660453244227
994,0.22070109661222787
996,-2.4283186811864717
998,-1.410528741235163
