wave,flux
336,157.54741130690292
338,255.33933743386717
340,437.92037629761586
342,758.4238325045486
344,1210.9978359335396
346,1794.923276782789
348,2545.3906693493213
350,3472.390040878536
352,4643.2688012175695
354,6058.579416029595
356,7709.96971390794
358,9587.19920097205
360,11787.95052733667
362,14471.801903052896
364,17694.72143628099
366,21509.940363983053
368,26106.364226333186
370,31638.607380944923
372,38210.674742808325
374,46113.217221856234
376,56010.30643001872
378,68780.37287516696
380,84999.76464532221
382,104838.24544298362
384,128217.76698319243
386,155093.68340904766
388,186239.4431072385
390,224030.6626675918
392,272382.4842761402
394,334103.5014836637
396,408873.4144030843
398,493184.08175209915
400,582753.6508552397
402,674974.431557858
404,770416.3061260357
406,872409.1618684717
408,984828.5080445237
410,1109206.863196366
412,1243380.6075463702
414,1381562.1411304113
416,1519073.0878990227
418,1652662.8954139627
420,1784215.3558175475
422,1916918.3747991666
424,2057000.5865206015
426,2210771.492199574
428,2382778.5976013793
430,2575148.8499656613
432,2787458.8144203275
434,3017754.9515353083
436,3263981.8694725814
438,3526705.5558860456
440,3806942.786570747
442,4106048.454213973
444,4421504.522634248
446,4749135.714111127
448,5072115.237872046
450,5369814.038150651
452,5622507.372934452
454,5812776.511271004
456,5934999.493842728
458,6003025.983961043
460,6033141.777209722
462,6041109.781701855
464,6041223.204370188
466,6041142.069239042
468,6041500.978196908
470,6041270.966676855
472,6041453.504327073
474,6041456.906917324
476,6041360.449780059
478,6041251.532729323
480,6041463.546647473
482,6041611.901338199
484,6041092.219004056
486,6041709.816516394
488,6041204.9351937035
490,6041362.100002964
492,6041405.872411757
494,6041217.565447364
496,6041682.336113222
498,6041700.95647886
500,6041571.663540899
502,6041600.312640681
504,6041524.761326301
506,6041510.095139705
508,6041366.558749443
510,6041317.666330266
512,6041810.676419222
514,6041523.39751874
516,6041414.839126088
518,6041306.761446083
520,6041435.77108559
522,6041622.4672036795
524,6041472.279166713
526,6041188.134668438
528,6041667.903176252
530,6040972.172768527
532,6041668.937070939
534,6041911.237586875
536,6041817.373298278
538,6041501.797457646
540,6041270.369685416
542,6041255.5696594585
544,6041622.47809469
546,6041210.046605739
548,6041210.676521109
550,6041370.551855499
552,6041516.583911419
554,6041445.2199436035
556,6041279.089807673
558,6041176.785028199
560,6041432.189576159
562,6041292.474779289
564,6041061.452227113
566,6041096.840871194
568,6041337.888744614
570,6040983.807739464
572,6041872.054396588
574,6041623.04278533
576,6041582.403692413
578,6041441.53196607
580,6041368.055849116
582,6041402.701379133
584,6041115.762215172
586,6041203.6347637335
588,6041411.006870927
590,6041258.630487347
592,6041570.82870425
594,6041701.940849618
596,6041381.025168204
598,6041507.133570503
600,6041251.231827382
602,6041466.834529929
604,6041447.315512043
606,6041193.840858883
608,6041743.657504875
610,6041453.650879992
612,6041120.879940472
614,6041208.388143343
616,6041330.0736459205
618,6041594.638146225
620,6040269.605245682
622,6039553.213444389
624,6041934.584808499
626,6041171.87475346
628,6039846.931782126
630,6041081.766898029
632,6042018.974045314
634,6041181.759014128
636,6039981.833059776
638,6040852.349925008
640,6042162.500398708
642,6042007.512118989
644,6040598.350107904
646,6041575.764601596
648,6041789.946488596
650,6041017.404709597
652,6041190.19881534
654,6041363.763851989
656,6041317.894759569
658,6041447.00041768
660,6041549.409849818
662,6041377.525327677
664,6041484.494928045
666,6041443.75061018
668,6041107.991072904
670,6041563.761000271
672,6041267.206276432
674,6041163.483843254
676,6041536.128915831
678,6041346.24345349
680,6041150.289956291
682,6041410.314774397
684,6041560.064687422
686,6041447.9187860545
688,6040955.81893969
690,6041315.875338955
692,6041350.307975556
694,6041850.281893436
696,6041497.367671758
698,6041199.302168769
700,6041453.64627868
702,6041828.693192877
704,6040860.42770877
706,6041675.622792104
708,6041571.681644926
710,6041346.454989626
712,6041546.234560798
714,6041858.824615336
716,6041142.5820534965
718,6041286.403162461
720,6041703.1207177285
722,6041807.585318082
724,6041329.8607438
726,6041296.890614847
728,6041527.288726995
730,6041723.792105585
732,6041192.330811199
734,6041150.1016538385
736,6041704.398114255
738,6041255.137810724
740,6041344.973276121
742,6041402.044472554
744,6041509.896928869
746,6041611.23472158
748,6041281.529689905
750,6041392.455248062
752,6040981.1977447625
754,6041295.389267499
756,6041239.4416478425
758,6041271.659960353
760,6041533.037164191
762,6033170.558480699
764,5997309.196911797
766,5919816.184365741
768,5789128.623488824
770,5591227.92157777
772,5331562.926099856
774,5030824.995786329
776,4699258.250554136
778,4346757.545140255
780,3987299.429810042
782,3631624.3336451664
784,3286378.269654552
786,2964560.482130975
788,2677357.907088312
790,2431812.978824052
792,2227005.630354121
794,2056991.6675400746
796,1912122.286436368
798,1783069.2196949078
800,1663500.214270693
802,1548744.6415391257
804,1440089.3704584274
806,1338355.7413583586
808,1246002.4351940232
810,1164641.9993123675
812,1094313.8934356393
814,1033315.1507154639
816,979276.3012057306
818,928884.3489745458
820,880151.1850921786
822,831067.2044299131
824,781134.7456778135
826,731197.4373941015
828,682133.9307999852
830,635157.065687494
832,590767.9318637582
834,549817.9262336656
836,511926.9827578021
838,476508.58827418834
840,442988.8091633684
842,410512.7161371145
844,378885.83903410326
846,347759.8550145639
848,317145.038704723
850,286997.5341464601
852,257814.11993689087
854,229635.74166079867
856,202883.51438950063
858,177548.2583061767
860,153963.78261275878
862,132580.8515415665
864,113288.53811543316
866,96239.40874515912
868,81413.00428997858
870,68826.20859127876
872,58133.754868965356
874,49160.33286656182
876,41666.7751322839
878,35497.06635140222
880,30295.018445045593
882,25695.68578759554
884,21591.37521759164
886,17852.922836174053
888,14389.809163301048
890,11160.697668091325
892,8122.388938503005
894,5540.658797514908
896,3560.8201047046186
898,2067.8082667675035
900,1036.1379326991748
902,389.7262820249188
904,91.05201843704549
906,33.85408597934234
908,10.175341117526877
910,0.4798427012002451
912,-3.482973111878331
914,2.393407046365594
916,-5.54246237681494
918,-0.29287613119402345
920,-2.3379566926154904
922,4.289920058427215
924,0.9442159283387628
926,-2.7336637591896857
928,1.0006701908683229
930,-1.3057717257606596
932,1.5404292547943992
934,4.001179039549514
936,-1.414773894536123
938,3.248233771030033
940,0.4896997775772239
942,3.269850699677664
944,0.8757233738836303
946,1.835094323646329
948,-1.5911823412967454
950,0.22756291881490442
952,1.4645588048001232
954,3.043621082643513
956,0.027056986644400358
958,-0.10659459427895207
960,-0.7023202398106899
962,-2.0064684457895754
964,-3.0020412361544704
966,-2.2327748367148637
968,-2.2451702637504916
970,3.087313082970052
972,-1.474238603491238
974,-1.3750943045639343
976,0.09099228775895851
978,-4.359327552662422
980,0.17173412192045567
982,0.5883557203648353
984,-0.6237451035931326
986,0.24693956783995888
988,-1.1733774690472267
990,1.089032408027303
992,0.5823660453244227
994,0.22070109661222787
996,-2.4283186811864717
998,-1.410528741235163
