wave,flux
336,-1.5779719581870046
338,-4.04093466845147
340,0.33096174881356727
342,4.094476570099608
344,-0.3212450404219702
346,-1.4143808248448295
348,-2.08023644596843
350,-0.4196619879256008
352,0.6586455225809341
354,-6.091565296302805
356,-3.3248043311422992
358,71.4761847863577
360,373.6286048738885
362,905.4347267749953
364,1426.5996999878669
366,1886.2859417212828
368,2387.25216168928
370,2966.850162088055
372,3799.9162094436683
374,4951.277556943058
376,6783.448740028241
378,9392.894433712756
380,12663.505490482645
382,15586.31442610993
384,18671.30950043183
386,22778.745029713875
388,29043.30486310346
390,43152.43654388772
392,83185.58026986005
394,150056.44725809278
396,229918.37708736834
398,290055.77113895665
400,328640.66433290136
402,352361.56985051325
404,376474.3453556235
406,402527.10452274117
408,430760.56719343323
410,462060.42672614264
412,497060.99244101153
414,535223.9731183365
416,576406.260296722
418,622658.1755184334
420,678925.7596438768
422,751091.1277924443
424,844172.9970989949
426,962164.0256290521
428,1102863.7068231516
430,1253019.090098584
432,1388646.1804918752
434,1486408.3648410009
436,1536055.049147963
438,1549033.9393256374
440,1550816.1134083925
442,1568054.3667513554
444,1621377.0783354966
446,1722664.4938066415
448,1879782.8549157386
450,2101216.4667273415
452,2398299.264661652
454,2785713.1404366735
456,3270645.5955944383
458,3825922.1972366665
460,4403266.341977877
462,4949994.128600999
464,5400180.704745275
466,5714481.832524346
468,5907627.616720369
470,6005161.072736119
472,6037813.059750815
474,6041061.114689401
476,6041144.854149662
478,6041252.403400446
480,6040914.698991125
482,6041850.881103914
484,6041292.890452169
486,6041051.448258291
488,6041695.509123886
490,6040901.444769823
492,6041705.17651943
494,6041612.883273082
496,6041654.87951582
498,6041441.058887976
500,6041170.152398203
502,6041532.921159195
504,6041317.00164559
506,6041315.6192138335
508,6041613.765981972
510,6041615.478269368
512,6041498.205464599
514,6041803.335024482
516,6041169.746627392
518,6041531.9501679465
520,6041188.168111476
522,6041089.639638248
524,6041048.738278166
526,6041164.099013815
528,6041833.943302521
530,6041508.7455180725
532,6041046.685082943
534,6041452.036740405
536,6041067.053634091
538,6037523.211361299
540,6026350.037741001
542,6003994.12054853
544,5968766.493566293
546,5920503.086576647
548,5857893.551656243
550,5782558.748537922
552,5698156.215049664
554,5610299.355867912
556,5528233.392335824
558,5456644.471818348
560,5397993.001907833
562,5353929.255801196
564,5324377.385162024
566,5308179.889431213
568,5305205.270438981
570,5313333.73795039
572,5333207.116732393
574,5362530.776847995
576,5398657.761398108
578,5441304.725282771
580,5490924.370847046
582,5547108.449038232
584,5608887.437860995
586,5674954.981740036
588,5742180.705176199
590,5804675.49641057
592,5860139.980318378
594,5907676.669325588
596,5947520.280187902
598,5980533.20209437
600,6005687.160238938
602,6023370.793305006
604,6034395.27798573
606,6039813.638510419
608,6041388.104914591
610,6041575.662419029
612,6041367.780122683
614,6041225.240909812
616,6041468.839427731
618,6041786.854207243
620,6040823.945011949
622,6039869.846604733
624,6040860.395709785
626,6040969.388412005
628,6041223.5662334245
630,6042271.20730477
632,6041847.9619758995
634,6041246.204784805
636,6041414.704439518
638,6041880.501697841
640,6042161.518463548
642,6042707.2253564615
644,6043661.541039183
646,6042497.434086367
648,6040933.236275792
650,6042014.523220864
652,6041838.849439899
654,6040369.555513643
656,6041025.6283131875
658,6041925.685727173
660,6041816.784445522
662,6041859.197787558
664,6041456.239416476
666,6039990.187472557
668,6038710.53130008
670,6038623.771107486
672,6040053.7451335415
674,6041990.021055888
676,6042862.44808733
678,6041028.944631788
680,6038266.263514595
682,6038735.101332028
684,6040452.085160215
686,6040151.41468377
688,6039473.891062495
690,6039509.179639331
692,6038831.532402232
694,6038747.709678021
696,6042556.111639898
698,6044883.426772917
700,6039121.870510334
702,6040872.318015208
704,6040765.728499396
706,6041712.837878929
708,6041575.360173916
710,6041346.780650449
712,6041546.261366031
714,6041858.826601584
716,6041142.582175325
718,6041286.403166693
720,6041703.12071738
722,6041807.585317988
724,6041329.860743788
726,6041296.890614846
728,6041527.288726995
730,6041723.792105585
732,6041192.330811199
734,6041150.1016538385
736,6041704.398114255
738,6041255.137810724
740,6041344.973276121
742,6041402.044472554
744,6041509.896928869
746,6041611.23472158
748,6041281.529689905
750,6041392.455248062
752,6040981.1977447625
754,6041295.389267499
756,6041239.4416478425
758,6041271.659960353
760,6041533.037164191
762,6033170.558480699
764,5997309.196911797
766,5919816.184365741
768,5789128.623488824
770,5591227.92157777
772,5331562.926099856
774,5030824.995786329
776,4699258.250554136
778,4346757.545140255
780,3987299.429810042
782,3631624.3336451664
784,3286378.269654552
786,2964560.482130975
788,2677357.907088312
790,2431812.978824052
792,2227005.630354121
794,2056991.6675400746
796,1912122.286436368
798,1783069.2196949078
800,1663500.214270693
802,1548744.6415391257
804,1440089.3704584274
806,1338355.7413583586
808,1246002.4351940232
810,1164641.9993123675
812,1094313.8934356393
814,1033315.1507154639
816,979276.3012057306
818,928884.3489745458
820,880151.1850921786
822,831067.2044299131
824,781134.7456778135
826,731197.4373941015
828,682133.9307999852
830,635157.065687494
832,590767.9318637582
834,549817.9262336656
836,511926.9827578021
838,476508.58827418834
840,442988.8091633684
842,410512.7161371145
844,378885.83903410326
846,347759.8550145639
848,317145.038704723
850,286997.5341464601
852,257814.11993689087
854,229635.74166079867
856,202883.51438950063
858,177548.2583061767
860,153963.78261275878
862,132580.8515415665
864,113288.53811543316
866,96239.40874515912
868,81413.00428997858
870,68826.20859127876
872,58133.754868965356
874,49160.33286656182
876,41666.7751322839
878,35497.06635140222
880,30295.018445045593
882,25695.68578759554
884,21591.37521759164
886,17852.922836174053
888,14389.809163301048
890,11160.697668091325
892,8122.388938503005
894,5540.658797514908
896,3560.8201047046186
898,2067.8082667675035
900,1036.1379326991748
902,389.7262820249188
904,91.05201843704549
906,33.85408597934234
908,10.175341117526877
910,0.4798427012002451
912,-3.482973111878331
914,2.393407046365594
916,-5.54246237681494
918,-0.29287613119402345
920,-2.3379566926154904
922,4.289920058427215
924,0.9442159283387628
926,-2.7336637591896857
928,1.0006701908683229
930,-1.3057717257606596
932,1.5404292547943992
934,4.001179039549514
936,-1.414773894536123
938,3.248233771030033
940,0.4896997775772239
942,3.269850699677664
944,0.8757233738836303
946,1.835094323646329
948,-1.5911823412967454
950,0.22756291881490442
952,1.4645588048001232
954,3.043621082643513
956,0.027056986644400358
958,-0.10659459427895207
960,-0.7023202398106899
962,-2.0064684457895754
964,-3.0020412361544704
966,-2.2327748367148637
968,-2.2451702637504916
970,3.087313082970052
972,-1.474238603491238
974,-1.3750943045639343
976,0.09099228775895851
978,-4.359327552662422
980,0.17173412192045567
982,0.5883557203648353
984,-0.6237451035931326
986,0.24693956783995888
988,-1.1733774690472267
990,1.089032408027303
992,0.5823660453244227
994,0.22070109661222787
996,-2.4283186811864717
998,-1.410528741235163
