wave,flux
336,51908.03633633049
338,59573.23336692447
340,66732.61859704302
342,80696.42017952367
344,104928.93720486839
346,137318.3520454794
348,169332.3894033096
350,190828.30812439293
352,194822.11745403742
354,182228.29452420023
356,163808.14422321937
358,151912.7997320672
360,152670.91679667708
362,166218.23546283392
364,187607.17698731655
366,210946.38935566804
368,235130.00157706
370,262310.1828866496
372,291632.3940531065
374,316812.73644431494
376,331495.6954713563
378,334726.8333578805
380,329417.4228191946
382,318014.0779823784
384,302057.6645472688
386,287137.1230577982
388,284415.2447181593
390,305669.4859125792
392,356094.50071518985
394,432210.7144116261
396,525139.070546282
398,625433.6259801451
400,726729.7598389675
402,822673.3339978877
404,905999.2210977668
406,971151.270343434
408,1021410.3218184211
410,1071421.8024067578
412,1137940.7693417228
414,1228392.34670126
416,1333473.2814120324
418,1432791.9161418672
420,1506186.0913866302
422,1543182.3475697788
424,1545968.6422954695
426,1526671.0543528255
428,1501000.17467112
430,1483298.941883247
432,1485206.4038372624
434,1516630.2497523567
436,1584157.5093055977
438,1691583.74487314
440,1833867.099836522
442,1998438.293988564
444,2166356.5435319776
446,2319012.76854312
448,2446149.3205491635
450,2548612.4310739706
452,2638588.1428257334
454,2736523.7483412316
456,2860281.629087663
458,3023831.045773148
460,3232317.277215341
462,3485970.47913776
464,3780345.3548367233
466,4111852.3759456533
468,4469123.990548415
470,4829416.236200072
472,5170379.803460874
474,5471223.6403333135
476,5705768.684359233
478,5866914.958455628
480,5966839.424608781
482,6018956.7206113
484,6038349.850881898
486,6041499.223259552
488,6041529.682720356
490,6041301.350917449
492,6041128.654827169
494,6041488.610681787
496,6041289.729396634
498,6041511.441864619
500,6041359.253983079
502,6041927.994763222
504,6041087.395914179
506,6041180.5398286
508,6041264.004174152
510,6041598.975484113
512,6041480.042627079
514,6041321.900165845
516,6041653.637754838
518,6041596.486196754
520,6041414.617807314
522,6040991.423604794
524,6041318.638005744
526,6041339.76735136
528,6041404.802818374
530,6041365.85215298
532,6041283.031994877
534,6041611.309614337
536,6041319.68693744
538,6041398.952853649
540,6040995.197208935
542,6041110.6666175835
544,6041833.243179853
546,6041383.944507003
548,6041109.017877795
550,6041184.590490195
552,6041198.891032712
554,6041224.060696142
556,6041459.038807934
558,6041591.252760928
560,6041455.717221979
562,6041376.899542392
564,6041257.1165303625
566,6041462.726734028
568,6041759.996878875
570,6041419.789877098
572,6041132.419581204
574,6040792.981994849
576,6041161.5762401065
578,6041427.543861707
580,6041298.259416926
582,6041284.3523800615
584,6041400.007348619
586,6041415.522603327
588,6041390.862799445
590,6041274.11508503
592,6041376.549730011
594,6041327.993476172
596,6041000.339176932
598,6041019.702797104
600,6041359.020356782
602,6041583.84523723
604,6041622.549347712
606,6041684.565524917
608,6041756.650161209
610,6041463.488164828
612,6041688.8163367985
614,6041850.636459196
616,6041106.602461586
618,6041201.476725204
620,6041479.959841151
622,6041006.1192292245
624,6040121.307613944
626,6040389.759704001
628,6040771.8038364835
630,6040739.248573499
632,6041801.46820827
634,6042760.646442367
636,6042710.595023389
638,6042006.29723194
640,6041512.920531052
642,6041389.32678153
644,6041231.692133224
646,6040874.7197731985
648,6040805.356099277
650,6041543.376489017
652,6042261.632318895
654,6042047.007510111
656,6040692.265725374
658,6040227.752536267
660,6041066.473250443
662,6041130.072969651
664,6040778.32607967
666,6041497.398394754
668,6041110.476859572
670,6041563.823487585
672,6041267.204528447
674,6041163.483489545
676,6041536.128884705
678,6041346.243451296
680,6041150.289956153
682,6041410.314774388
684,6041560.0646874225
686,6041447.9187860545
688,6040955.81893969
690,6041315.875338955
692,6041350.307975556
694,6041850.281893436
696,6041497.367671758
698,6041199.302168769
700,6041453.64627868
702,6041828.693192877
704,6040860.42770877
706,6041675.622792104
708,6041571.681644926
710,6041346.454989626
712,6041546.234560798
714,6041858.824615336
716,6041142.5820534965
718,6041286.403162461
720,6041703.1207177285
722,6041807.585318082
724,6041329.8607438
726,6041296.890614847
728,6041527.288726995
730,6041723.792105585
732,6041192.330811199
734,6041150.1016538385
736,6041704.398114255
738,6041255.137810724
740,6041344.973276121
742,6041402.044472554
744,6041509.896928869
746,6041611.23472158
748,6041281.529689905
750,6041392.455248062
752,6040981.1977447625
754,6041295.389267499
756,6041239.4416478425
758,6041271.659960353
760,6041533.037164191
762,6033170.558480699
764,5997309.196911797
766,5919816.184365741
768,5789128.623488824
770,5591227.92157777
772,5331562.926099856
774,5030824.995786329
776,4699258.250554136
778,4346757.545140255
780,3987299.429810042
782,3631624.3336451664
784,3286378.269654552
786,2964560.482130975
788,2677357.907088312
790,2431812.978824052
792,2227005.630354121
794,2056991.6675400746
796,1912122.286436368
798,1783069.2196949078
800,1663500.214270693
802,1548744.6415391257
804,1440089.3704584274
806,1338355.7413583586
808,1246002.4351940232
810,1164641.9993123675
812,1094313.8934356393
814,1033315.1507154639
816,979276.3012057306
818,928884.3489745458
820,880151.1850921786
822,831067.2044299131
824,781134.7456778135
826,731197.4373941015
828,682133.9307999852
830,635157.065687494
832,590767.9318637582
834,549817.9262336656
836,511926.9827578021
838,476508.58827418834
840,442988.8091633684
842,410512.7161371145
844,378885.83903410326
846,347759.8550145639
848,317145.038704723
850,286997.5341464601
852,257814.11993689087
854,229635.74166079867
856,202883.51438950063
858,177548.2583061767
860,153963.78261275878
862,132580.8515415665
864,113288.53811543316
866,96239.40874515912
868,81413.00428997858
870,68826.20859127876
872,58133.754868965356
874,49160.33286656182
876,41666.7751322839
878,35497.06635140222
880,30295.018445045593
882,25695.68578759554
884,21591.37521759164
886,17852.922836174053
888,14389.809163301048
890,11160.697668091325
892,8122.388938503005
894,5540.658797514908
896,3560.8201047046186
898,2067.8082667675035
900,1036.1379326991748
902,389.7262820249188
904,91.05201843704549
906,33.85408597934234
908,10.175341117526877
910,0.4798427012002451
912,-3.482973111878331
914,2.393407046365594
916,-5.54246237681494
918,-0.29287613119402345
920,-2.3379566926154904
922,4.289920058427215
924,0.9442159283387628
926,-2.7336637591896857
928,1.0006701908683229
930,-1.3057717257606596
932,1.5404292547943992
934,4.001179039549514
936,-1.414773894536123
938,3.248233771030033
940,0.4896997775772239
942,3.269850699677664
944,0.8757233738836303
946,1.835094323646329
948,-1.5911823412967454
950,0.22756291881490442
952,1.4645588048001232
954,3.043621082643513
956,0.027056986644400358
958,-0.10659459427895207
960,-0.7023202398106899
962,-2.0064684457895754
964,-3.0020412361544704
966,-2.2327748367148637
968,-2.2451702637504916
970,3.087313082970052
972,-1.474238603491238
974,-1.3750943045639343
976,0.09099228775895851
978,-4.359327552662422
980,0.17173412192045567
982,0.5883557203648353
984,-0.6237451035931326
986,0.24693956783995888
988,-1.1733774690472267
990,1.089032408027303
992,0.5823660453244227
994,0.22070109661222787
996,-2.4283186811864717
998,-1.410528741235163
