wave,flux
336,143.73521692219975
338,268.8548501349458
340,481.43468064299617
342,849.2590321758233
344,1379.2531341126985
346,2062.254901283651
348,2906.0838344125973
350,3923.387074277026
352,5145.032946316561
354,6608.1471342431005
356,8314.841784155129
358,10313.682442199017
360,12704.031345314446
362,15609.511309426749
364,19029.175123399134
366,23059.46243009947
368,27882.54891050921
370,33656.726410648815
372,40427.96337850349
374,48382.72715234654
376,58208.070642510356
378,70740.4678518722
380,86673.26255189996
382,106496.01397417556
384,130791.7716311201
386,160217.94453475394
388,196068.39063273082
390,240661.30571581644
392,297460.6080873151
394,368945.91450597165
396,454511.06374667987
398,550243.3931133454
400,651188.5342053283
402,753512.1352851564
404,856212.8462149276
406,961273.7125216989
408,1071624.3723462874
410,1189016.65773374
412,1312496.1352104591
414,1438422.0221253454
416,1564453.2965183244
418,1690602.316835225
420,1819827.5184214055
422,1957408.6572616803
424,2108646.535632966
426,2278054.197111574
428,2466932.309292805
430,2673790.2375619938
432,2895069.265663444
434,3126493.6478104577
436,3368699.580854025
438,3625404.45917436
440,3901357.3873396562
442,4198929.354155561
444,4516352.817143827
446,4846112.305370903
448,5166692.981398562
450,5454335.965400574
452,5690531.750371905
454,5859664.377024142
456,5962626.581346793
458,6016559.879338073
460,6037461.729855182
462,6042000.392368135
464,6041725.089879317
466,6041630.484236019
468,6041141.004727117
470,6041314.390811377
472,6041529.6728254
474,6041629.54286087
476,6041511.651907221
478,6041651.1723826295
480,6041245.968041831
482,6041592.073511986
484,6041702.036415524
486,6041413.159131616
488,6041493.561914461
490,6041502.273339465
492,6041735.841061175
494,6041122.660420223
496,6041476.081493742
498,6041301.511708421
500,6041257.6493553985
502,6040992.864784445
504,6041751.505918848
506,6040967.890834004
508,6041634.427951771
510,6041221.987669433
512,6041673.299692586
514,6041575.000858059
516,6041674.636119567
518,6041408.572711866
520,6041451.153058166
522,6041468.339122968
524,6041730.095040788
526,6041261.3888146635
528,6041108.5178688355
530,6041360.831044886
532,6041746.07813854
534,6041442.145073727
536,6041498.3066560915
538,6041190.854102019
540,6041092.932210809
542,6041206.9072173545
544,6041129.776736208
546,6041513.813199686
548,6041570.871660215
550,6041609.976693955
552,6041555.654632548
554,6041570.888998572
556,6041508.0902311485
558,6041406.964319106
560,6041402.562401911
562,6041566.367040679
564,6041675.558506299
566,6041159.924562184
568,6041587.937574291
570,6041311.880042133
572,6041230.325109751
574,6041756.343968151
576,6041157.169110093
578,6041189.150371655
580,6041614.867991839
582,6041286.034937919
584,6041262.957088677
586,6041868.876443606
588,6041467.330648372
590,6041390.672018329
592,6041265.182413542
594,6041270.783478904
596,6041549.29893873
598,6041468.994938406
600,6041537.172740038
602,6041493.8146378165
604,6041447.75734336
606,6041543.091577629
608,6041571.644221525
610,6041475.754262367
612,6041383.880211909
614,6041413.146198006
616,6041653.564746986
618,6042071.377349191
620,6041600.959063917
622,6040685.520853194
624,6040822.950230035
626,6041714.46694567
628,6042167.945561156
630,6041484.127230403
632,6040331.761610254
634,6040470.249510156
636,6041359.856231063
638,6041116.379250799
640,6041455.975737502
642,6041832.490037668
644,6040784.952125774
646,6040859.938813683
648,6041688.546265207
650,6041411.270855134
652,6041713.15681222
654,6041397.692731102
656,6041151.200877034
658,6041511.4301892705
660,6041551.262258928
662,6041377.486709829
664,6041484.487439497
666,6041443.750089359
668,6041107.991048773
670,6041563.760999665
672,6041267.2062764475
674,6041163.483843256
676,6041536.128915831
678,6041346.24345349
680,6041150.289956291
682,6041410.314774397
684,6041560.064687422
686,6041447.9187860545
688,6040955.81893969
690,6041315.875338955
692,6041350.307975556
694,6041850.281893436
696,6041497.367671758
698,6041199.302168769
700,6041453.64627868
702,6041828.693192877
704,6040860.42770877
706,6041675.622792104
708,6041571.681644926
710,6041346.454989626
712,6041546.234560798
714,6041858.824615336
716,6041142.5820534965
718,6041286.403162461
720,6041703.1207177285
722,6041807.585318082
724,6041329.8607438
726,6041296.890614847
728,6041527.288726995
730,6041723.792105585
732,6041192.330811199
734,6041150.1016538385
736,6041704.398114255
738,6041255.137810724
740,6041344.973276121
742,6041402.044472554
744,6041509.896928869
746,6041611.23472158
748,6041281.529689905
750,6041392.455248062
752,6040981.1977447625
754,6041295.389267499
756,6041239.4416478425
758,6041271.659960353
760,6041533.037164191
762,6033170.558480699
764,5997309.196911797
766,5919816.184365741
768,5789128.623488824
770,5591227.92157777
772,5331562.926099856
774,5030824.995786329
776,4699258.250554136
778,4346757.545140255
780,3987299.429810042
782,3631624.3336451664
784,3286378.269654552
786,2964560.482130975
788,2677357.907088312
790,2431812.978824052
792,2227005.630354121
794,2056991.6675400746
796,1912122.286436368
798,1783069.2196949078
800,1663500.214270693
802,1548744.6415391257
804,1440089.3704584274
806,1338355.7413583586
808,1246002.4351940232
810,1164641.9993123675
812,1094313.8934356393
814,1033315.1507154639
816,979276.3012057306
818,928884.3489745458
820,880151.1850921786
822,831067.2044299131
824,781134.7456778135
826,731197.4373941015
828,682133.9307999852
830,635157.065687494
832,590767.9318637582
834,549817.9262336656
836,511926.9827578021
838,476508.58827418834
840,442988.8091633684
842,410512.7161371145
844,378885.83903410326
846,347759.8550145639
848,317145.038704723
850,286997.5341464601
852,257814.11993689087
854,229635.74166079867
856,202883.51438950063
858,177548.2583061767
860,153963.78261275878
862,132580.8515415665
864,113288.53811543316
866,96239.40874515912
868,81413.00428997858
870,68826.20859127876
872,58133.754868965356
874,49160.33286656182
876,41666.7751322839
878,35497.06635140222
880,30295.018445045593
882,25695.68578759554
884,21591.37521759164
886,17852.922836174053
888,14389.809163301048
890,11160.697668091325
892,8122.388938503005
894,5540.658797514908
896,3560.8201047046186
898,2067.8082667675035
900,1036.1379326991748
902,389.7262820249188
904,91.05201843704549
906,33.85408597934234
908,10.175341117526877
910,0.4798427012002451
912,-3.482973111878331
914,2.393407046365594
916,-5.54246237681494
918,-0.29287613119402345
920,-2.3379566926154904
922,4.289920058427215
924,0.9442159283387628
926,-2.7336637591896857
928,1.0006701908683229
930,-1.3057717257606596
932,1.5404292547943992
934,4.001179039549514
936,-1.414773894536123
938,3.248233771030033
940,0.4896997775772239
942,3.269850699677664
944,0.8757233738836303
946,1.835094323646329
948,-1.5911823412967454
950,0.22756291881490442
952,1.4645588048001232
954,3.043621082643513
956,0.027056986644400358
958,-0.10659459427895207
960,-0.7023202398106899
962,-2.0064684457895754
964,-3.0020412361544704
966,-2.2327748367148637
968,-2.2451702637504916
970,3.087313082970052
972,-1.474238603491238
974,-1.3750943045639343
976,0.09099228775895851
978,-4.359327552662422
980,0.17173412192045567
982,0.5883557203648353
984,-0.6237451035931326
986,0.24693956783995888
988,-1.1733774690472267
990,1.089032408027303
992,0.5823660453244227
994,0.22070109661222787
996,-2.4283186811864717
998,-1.410528741235163
