wave,flux
336,14763.510105477697
338,19180.89093042349
340,24670.088152500328
342,31431.64034470914
344,39069.13503738121
346,47053.94784589805
348,56352.78220752429
350,68592.95205132161
352,84029.36393043496
354,101884.48478538895
356,120448.7073794155
358,137900.20812764377
360,154541.7411383257
362,173003.50378194946
364,196105.93672191235
366,227398.02977960915
368,273741.1139940543
370,354120.54784468026
372,514253.34709853283
374,824061.4913836275
376,1333148.5304759485
378,2006582.7900428113
380,2712624.6641724086
382,3300148.8448239723
384,3689139.761539727
386,3898303.859105509
388,4011356.975087987
390,4123113.9669247563
392,4306242.839677703
394,4580104.030285044
396,4907243.474765099
398,5218685.42997596
400,5451510.900335861
402,5583567.523717265
404,5647009.21261142
406,5703359.793768523
408,5786635.330918736
410,5891819.465588078
412,5976722.137945279
414,6025058.151448854
416,6040702.02303402
418,6040971.74694241
420,6041524.088440502
422,6041539.656345555
424,6041215.365724117
426,6041189.324790629
428,6041668.4915894335
430,6041052.2753478065
432,6041657.171833071
434,6041312.775109949
436,6040953.054471109
438,6041509.527656707
440,6041263.52376124
442,6041003.562384077
444,6041099.567203334
446,6041327.4766292395
448,6041259.12187344
450,6041620.426474468
452,6041649.156697011
454,6041255.613878738
456,6041070.908988059
458,6041518.789111023
460,6041064.902300573
462,6040922.625104565
464,6041054.1758277975
466,6041166.424591378
468,6041135.6022551255
470,6041485.775651482
472,6041019.6272176765
474,6041482.346771549
476,6041573.7593562985
478,6041163.29045167
480,6041172.755885032
482,6041521.3644712195
484,6041519.800522079
486,6041618.949369368
488,6041416.054084872
490,6041188.354571672
492,6041198.149507047
494,6041369.893244598
496,6041338.928773644
498,6041473.952815729
500,6041440.1308911815
502,6041752.364628738
504,6041428.249534181
506,6041698.030029538
508,6041499.91301591
510,6041379.691378448
512,6041271.709402161
514,6041401.296098265
516,6041478.819542144
518,6041410.716607639
520,6041880.379146655
522,6041098.55850337
524,6041539.34536255
526,6041556.305817759
528,6041453.666118974
530,6041559.542211922
532,6041583.475362912
534,6041816.76295722
536,6041469.392604407
538,6041095.449657832
540,6041505.741782457
542,6041353.142894894
544,6041467.67845528
546,6041360.865450812
548,6041183.258002035
550,6041389.9151363075
552,6041330.147677686
554,6041500.868435194
556,6041915.808467295
558,6041116.464500327
560,6041034.6109028645
562,6041420.249916077
564,6041462.363397596
566,6041387.044095721
568,6041778.340279683
570,6041501.232617036
572,6041354.366811346
574,6041442.739277196
576,6041895.213592197
578,6041731.536749079
580,6041492.8209813
582,6041669.952648693
584,6041371.570309252
586,6040901.469894676
588,6041703.142399184
590,6041426.526551105
592,6041274.095035391
594,6041288.804908244
596,6041012.37430439
598,6041141.7179237995
600,6041008.654352898
602,6041374.241234981
604,6041315.152277198
606,6040768.592119024
608,6041058.392946247
610,6041064.156461354
612,6041333.120791191
614,6041744.561050705
616,6041323.825315896
618,6040401.007276613
620,6041394.172127852
622,6042579.884119016
624,6040808.366860437
626,6040046.269271664
628,6040930.142683213
630,6041531.190487311
632,6040394.400849142
634,6040503.949538972
636,6041786.56847701
638,6041542.439678309
640,6042000.915833365
642,6042729.677986748
644,6041779.180191517
646,6041722.234320021
648,6041571.118968162
650,6041439.428266741
652,6041785.968231866
654,6041402.176071024
656,6041124.255993445
658,6041509.694485
660,6041551.212355999
662,6041377.487750175
664,6041484.487641235
666,6041443.750103388
668,6041107.991049422
670,6041563.760999681
672,6041267.2062764475
674,6041163.483843256
676,6041536.128915831
678,6041346.24345349
680,6041150.289956291
682,6041410.314774397
684,6041560.064687422
686,6041447.9187860545
688,6040955.81893969
690,6041315.875338955
692,6041350.307975556
694,6041850.281893436
696,6041497.367671758
698,6041199.302168769
700,6041453.64627868
702,6041828.693192877
704,6040860.42770877
706,6041675.622792104
708,6041571.681644926
710,6041346.454989626
712,6041546.234560798
714,6041858.824615336
716,6041142.5820534965
718,6041286.403162461
720,6041703.1207177285
722,6041807.585318082
724,6041329.8607438
726,6041296.890614847
728,6041527.288726995
730,6041723.792105585
732,6041192.330811199
734,6041150.1016538385
736,6041704.398114255
738,6041255.137810724
740,6041344.973276121
742,6041402.044472554
744,6041509.896928869
746,6041611.23472158
748,6041281.529689905
750,6041392.455248062
752,6040981.1977447625
754,6041295.389267499
756,6041239.4416478425
758,6041271.659960353
760,6041533.037164191
762,6033170.558480699
764,5997309.196911797
766,5919816.184365741
768,5789128.623488824
770,5591227.92157777
772,5331562.926099856
774,5030824.995786329
776,4699258.250554136
778,4346757.545140255
780,3987299.429810042
782,3631624.3336451664
784,3286378.269654552
786,2964560.482130975
788,2677357.907088312
790,2431812.978824052
792,2227005.630354121
794,2056991.6675400746
796,1912122.286436368
798,1783069.2196949078
800,1663500.214270693
802,1548744.6415391257
804,1440089.3704584274
806,1338355.7413583586
808,1246002.4351940232
810,1164641.9993123675
812,1094313.8934356393
814,1033315.1507154639
816,979276.3012057306
818,928884.3489745458
820,880151.1850921786
822,831067.2044299131
824,781134.7456778135
826,731197.4373941015
828,682133.9307999852
830,635157.065687494
832,590767.9318637582
834,549817.9262336656
836,511926.9827578021
838,476508.58827418834
840,442988.8091633684
842,410512.7161371145
844,378885.83903410326
846,347759.8550145639
848,317145.038704723
850,286997.5341464601
852,257814.11993689087
854,229635.74166079867
856,202883.51438950063
858,177548.2583061767
860,153963.78261275878
862,132580.8515415665
864,113288.53811543316
866,96239.40874515912
868,81413.00428997858
870,68826.20859127876
872,58133.754868965356
874,49160.33286656182
876,41666.7751322839
878,35497.06635140222
880,30295.018445045593
882,25695.68578759554
884,21591.37521759164
886,17852.922836174053
888,14389.809163301048
890,11160.697668091325
892,8122.388938503005
894,5540.658797514908
896,3560.8201047046186
898,2067.8082667675035
900,1036.1379326991748
902,389.7262820249188
904,91.05201843704549
906,33.85408597934234
908,10.175341117526877
910,0.4798427012002451
912,-3.482973111878331
914,2.393407046365594
916,-5.54246237681494
918,-0.29287613119402345
920,-2.3379566926154904
922,4.289920058427215
924,0.9442159283387628
926,-2.7336637591896857
928,1.0006701908683229
930,-1.3057717257606596
932,1.5404292547943992
934,4.001179039549514
936,-1.414773894536123
938,3.248233771030033
940,0.4896997775772239
942,3.269850699677664
944,0.8757233738836303
946,1.835094323646329
948,-1.5911823412967454
950,0.22756291881490442
952,1.4645588048001232
954,3.043621082643513
956,0.027056986644400358
958,-0.10659459427895207
960,-0.7023202398106899
962,-2.0064684457895754
964,-3.0020412361544704
966,-2.2327748367148637
968,-2.2451702637504916
970,3.087313082970052
972,-1.474238603491238
974,-1.3750943045639343
976,0.09099228775895851
978,-4.359327552662422
980,0.17173412192045567
982,0.5883557203648353
984,-0.6237451035931326
986,0.24693956783995888
988,-1.1733774690472267
990,1.089032408027303
992,0.5823660453244227
994,0.22070109661222787
996,-2.4283186811864717
998,-1.410528741235163
