wave,flux
336,1193.3820620006609
338,1781.1113538186394
340,2486.2803940601625
342,3570.1214759501104
344,5091.941266576959
346,6887.049547128752
348,8881.155700594205
350,11094.981925316792
352,13620.093702243614
354,16576.523400363953
356,19930.8145942804
358,23643.857761318188
360,27803.60993180466
362,32503.926586037538
364,37717.161704561724
366,43697.24784699443
368,51054.22121387611
370,60523.05792633402
372,73432.30896547672
374,92695.39346489619
376,123332.97399155129
378,169607.10650587
380,233280.50074414635
382,312948.3319491246
384,404093.4842812625
386,499041.8625467146
388,588602.9309740245
390,671195.8859791595
392,759621.1141787021
394,872547.6718821062
396,1020384.2906732522
398,1194980.9170921803
400,1377748.8806112728
402,1547435.6551816633
404,1691305.7319123033
406,1806905.9287111093
408,1901286.6720415372
410,1982350.0165628993
412,2055001.2579520135
414,2120178.080625398
416,2179997.848869937
418,2241975.776626629
420,2315985.7646619827
422,2412685.757565126
424,2537473.82522364
426,2689640.5471937126
428,2862025.2995125023
430,3042976.37143276
432,3221096.6717438684
434,3388737.3602470043
436,3547162.814486245
438,3706326.477440717
440,3875976.3554018713
442,4060809.4636443183
444,4257286.807218827
446,4454690.396597909
448,4643458.218509326
450,4820848.271494613
452,4993473.711577529
454,5172674.2469082475
456,5358803.90189123
458,5544708.498866672
460,5717305.829035925
462,5857004.771731363
464,5951186.260964556
466,6007719.487180032
468,6034264.253709622
470,6041376.130755452
472,6041522.883905676
474,6041329.953469287
476,6041525.243666745
478,6041258.597102272
480,6040888.799112197
482,6041450.312188024
484,6041628.2581818355
486,6041322.615228101
488,6041507.465730894
490,6042074.925355005
492,6041416.168457594
494,6041201.2454671655
496,6041714.728137546
498,6041525.14260415
500,6041023.369763794
502,6041314.336895143
504,6041546.258638874
506,6041388.882536127
508,6041555.636947044
510,6041117.928998834
512,6041524.979637706
514,6041192.000897242
516,6041242.083540864
518,6041042.547890718
520,6041626.955624043
522,6041216.057546014
524,6041423.444695096
526,6041240.05474618
528,6041581.176188704
530,6041021.4613303915
532,6041619.742685471
534,6041915.69852123
536,6041140.6247850945
538,6041444.035720357
540,6041384.548102909
542,6041114.682075009
544,6041117.715509952
546,6041238.625223979
548,6041476.275438289
550,6041578.342180765
552,6042155.110587709
554,6041586.428804574
556,6041346.887887782
558,6041412.132559091
560,6041271.492687587
562,6041289.329376121
564,6041421.0781589905
566,6041510.09020283
568,6041079.271935317
570,6041416.300774205
572,6041521.757147765
574,6041219.890545656
576,6041098.68474199
578,6041068.011297702
580,6041485.354078741
582,6041758.312757686
584,6041413.682002302
586,6041378.63412357
588,6041173.936441469
590,6041461.999316523
592,6041640.037333457
594,6041509.557618741
596,6041499.072128244
598,6041693.909862134
600,6041755.509272242
602,6041453.50777151
604,6041201.95621751
606,6041237.777704357
608,6041248.4115602765
610,6041166.522239963
612,6041330.700293328
614,6041412.586267945
616,6041190.940436117
618,6041734.683907183
620,6042038.404042401
622,6041792.07175621
624,6041509.164615802
626,6040548.982249473
628,6040190.61871783
630,6041040.380591653
632,6041699.047816846
634,6042479.4022867
636,6042816.318921443
638,6041947.623409027
640,6042702.586606409
642,6044099.39352434
644,6043066.138022263
646,6040910.4629777875
648,6040150.3570099035
650,6041816.088926097
652,6041814.883112654
654,6041378.359646593
656,6041267.520328262
658,6041518.923120811
660,6041551.477686895
662,6041377.482218726
664,6041484.486568609
666,6041443.750028789
668,6041107.991045967
670,6041563.760999594
672,6041267.20627645
674,6041163.483843256
676,6041536.128915831
678,6041346.24345349
680,6041150.289956291
682,6041410.314774397
684,6041560.064687422
686,6041447.9187860545
688,6040955.81893969
690,6041315.875338955
692,6041350.307975556
694,6041850.281893436
696,6041497.367671758
698,6041199.302168769
700,6041453.64627868
702,6041828.693192877
704,6040860.42770877
706,6041675.622792104
708,6041571.681644926
710,6041346.454989626
712,6041546.234560798
714,6041858.824615336
716,6041142.5820534965
718,6041286.403162461
720,6041703.1207177285
722,6041807.585318082
724,6041329.8607438
726,6041296.890614847
728,6041527.288726995
730,6041723.792105585
732,6041192.330811199
734,6041150.1016538385
736,6041704.398114255
738,6041255.137810724
740,6041344.973276121
742,6041402.044472554
744,6041509.896928869
746,6041611.23472158
748,6041281.529689905
750,6041392.455248062
752,6040981.1977447625
754,6041295.389267499
756,6041239.4416478425
758,6041271.659960353
760,6041533.037164191
762,6033170.558480699
764,5997309.196911797
766,5919816.184365741
768,5789128.623488824
770,5591227.92157777
772,5331562.926099856
774,5030824.995786329
776,4699258.250554136
778,4346757.545140255
780,3987299.429810042
782,3631624.3336451664
784,3286378.269654552
786,2964560.482130975
788,2677357.907088312
790,2431812.978824052
792,2227005.630354121
794,2056991.6675400746
796,1912122.286436368
798,1783069.2196949078
800,1663500.214270693
802,1548744.6415391257
804,1440089.3704584274
806,1338355.7413583586
808,1246002.4351940232
810,1164641.9993123675
812,1094313.8934356393
814,1033315.1507154639
816,979276.3012057306
818,928884.3489745458
820,880151.1850921786
822,831067.2044299131
824,781134.7456778135
826,731197.4373941015
828,682133.9307999852
830,635157.065687494
832,590767.9318637582
834,549817.9262336656
836,511926.9827578021
838,476508.58827418834
840,442988.8091633684
842,410512.7161371145
844,378885.83903410326
846,347759.8550145639
848,317145.038704723
850,286997.5341464601
852,257814.11993689087
854,229635.74166079867
856,202883.51438950063
858,177548.2583061767
860,153963.78261275878
862,132580.8515415665
864,113288.53811543316
866,96239.40874515912
868,81413.00428997858
870,68826.20859127876
872,58133.754868965356
874,49160.33286656182
876,41666.7751322839
878,35497.06635140222
880,30295.018445045593
882,25695.68578759554
884,21591.37521759164
886,17852.922836174053
888,14389.809163301048
890,11160.697668091325
892,8122.388938503005
894,5540.658797514908
896,3560.8201047046186
898,2067.8082667675035
900,1036.1379326991748
902,389.7262820249188
904,91.05201843704549
906,33.85408597934234
908,10.175341117526877
910,0.4798427012002451
912,-3.482973111878331
914,2.393407046365594
916,-5.54246237681494
918,-0.29287613119402345
920,-2.3379566926154904
922,4.289920058427215
924,0.9442159283387628
926,-2.7336637591896857
928,1.0006701908683229
930,-1.3057717257606596
932,1.5404292547943992
934,4.001179039549514
936,-1.414773894536123
938,3.248233771030033
940,0.4896997775772239
942,3.269850699677664
944,0.8757233738836303
946,1.835094323646329
948,-1.5911823412967454
950,0.22756291881490442
952,1.4645588048001232
954,3.043621082643513
956,0.027056986644400358
958,-0.10659459427895207
960,-0.7023202398106899
962,-2.0064684457895754
964,-3.0020412361544704
966,-2.2327748367148637
968,-2.2451702637504916
970,3.087313082970052
972,-1.474238603491238
974,-1.3750943045639343
976,0.09099228775895851
978,-4.359327552662422
980,0.17173412192045567
982,0.5883557203648353
984,-0.6237451035931326
986,0.24693956783995888
988,-1.1733774690472267
990,1.089032408027303
992,0.5823660453244227
994,0.22070109661222787
996,-2.4283186811864717
998,-1.410528741235163
