wave,flux
336,93.90194670063914
338,235.27951910881904
340,463.0685459789114
342,831.9830873265415
344,1345.6422108749161
346,2002.3203585891436
348,2810.578902635157
350,3790.6241590710083
352,4957.766080865485
354,6314.7499250847
356,7864.747930196324
358,9679.305490794537
360,11834.451992761458
362,14408.529620263138
364,17363.564317187644
366,20764.29742543006
368,24776.323328814226
370,29505.790478231953
372,34912.626191228745
374,40972.476017633235
376,47853.26580793054
378,56029.35972836082
380,66638.2388116397
382,81968.78870334048
384,104670.40222368926
386,136656.6213293882
388,178022.52278434328
390,228320.86385121808
392,287786.76790917554
394,357305.72325497115
396,436374.11071290495
398,522630.702558532
400,612733.0835442945
402,704167.783268926
404,796842.5188161981
406,893010.031466698
408,995665.7804107623
410,1105606.87331607
412,1219289.6744291715
414,1330790.0665661443
416,1434739.89762478
418,1530685.4479139016
420,1623128.1508764587
422,1719988.1931119936
424,1828286.1638623637
426,1952448.0799414224
428,2091635.481247289
430,2242671.200602673
432,2402335.761764803
434,2568776.3859927705
436,2744624.3410242493
438,2937412.1517976974
440,3151421.844078143
442,3390408.058905121
444,3653565.063586358
446,3935162.817777699
448,4228311.352257451
450,4526504.576816543
452,4824211.080727221
454,5112991.593398348
456,5377781.551353554
458,5606540.427229459
460,5786993.16081733
462,5911046.380526474
464,5986042.029252111
466,6024159.9764985535
468,6038887.713761754
470,6041557.993985264
472,6041494.470783438
474,6041609.851056472
476,6041466.745763422
478,6041591.564847404
480,6041360.205625442
482,6041377.429018472
484,6041276.435311936
486,6041440.692840084
488,6041474.97918047
490,6041243.113307664
492,6041550.420234756
494,6041497.697006506
496,6041635.068819225
498,6041212.375570403
500,6041333.430647113
502,6041735.261023328
504,6041220.899506738
506,6041333.732805034
508,6041554.088961788
510,6041235.000273133
512,6041135.064119159
514,6041499.891524042
516,6041335.605077135
518,6041087.077367105
520,6041153.319319489
522,6041191.33458184
524,6041374.7194005735
526,6041451.863726717
528,6041330.7139741015
530,6041610.302269386
532,6041619.651888251
534,6041369.216287286
536,6041434.775149988
538,6041278.244695241
540,6041141.706341247
542,6041229.849568382
544,6041346.490228396
546,6041256.877165931
548,6041458.519177985
550,6041345.507733027
552,6041426.403000656
554,6041407.415710649
556,6041544.962442782
558,6041449.416715562
560,6041860.3925097855
562,6041818.573521296
564,6041590.869747591
566,6041490.914627952
568,6041406.544289316
570,6041338.82820116
572,6041578.542056322
574,6041290.046766267
576,6041186.586370211
578,6041274.792212217
580,6041433.182673828
582,6041330.429439852
584,6041117.226995637
586,6041372.526571375
588,6041087.005108387
590,6041272.502620968
592,6041603.697698939
594,6041526.75474887
596,6041205.585382519
598,6040967.928560122
600,6040811.225404838
602,6041381.834368124
604,6041707.499931995
606,6041448.707749705
608,6041507.230886976
610,6041136.70381535
612,6040853.661108918
614,6041189.425177552
616,6041819.298572985
618,6041955.5306256665
620,6042159.313506939
622,6042557.243499654
624,6042596.248439275
626,6042204.013553392
628,6041408.246685084
630,6041075.002158327
632,6042261.845942025
634,6041760.216940614
636,6039744.4528038455
638,6039620.174763973
640,6040703.019301523
642,6041499.340382039
644,6041468.88154651
646,6042446.551300889
648,6043344.401587606
650,6041991.222532945
652,6040770.809657153
654,6040818.864599435
656,6041366.547806165
658,6041748.51572256
660,6041556.869160585
662,6041377.369820713
664,6041484.464773038
666,6041443.748512927
668,6041107.990975728
670,6041563.760997829
672,6041267.2062765
674,6041163.483843267
676,6041536.128915832
678,6041346.243453491
680,6041150.289956291
682,6041410.314774397
684,6041560.064687422
686,6041447.9187860545
688,6040955.81893969
690,6041315.875338955
692,6041350.307975556
694,6041850.281893436
696,6041497.367671758
698,6041199.302168769
700,6041453.64627868
702,6041828.693192877
704,6040860.42770877
706,6041675.622792104
708,6041571.681644926
710,6041346.454989626
712,6041546.234560798
714,6041858.824615336
716,6041142.5820534965
718,6041286.403162461
720,6041703.1207177285
722,6041807.585318082
724,6041329.8607438
726,6041296.890614847
728,6041527.288726995
730,6041723.792105585
732,6041192.330811199
734,6041150.1016538385
736,6041704.398114255
738,6041255.137810724
740,6041344.973276121
742,6041402.044472554
744,6041509.896928869
746,6041611.23472158
748,6041281.529689905
750,6041392.455248062
752,6040981.1977447625
754,6041295.389267499
756,6041239.4416478425
758,6041271.659960353
760,6041533.037164191
762,6033170.558480699
764,5997309.196911797
766,5919816.184365741
768,5789128.623488824
770,5591227.92157777
772,5331562.926099856
774,5030824.995786329
776,4699258.250554136
778,4346757.545140255
780,3987299.429810042
782,3631624.3336451664
784,3286378.269654552
786,2964560.482130975
788,2677357.907088312
790,2431812.978824052
792,2227005.630354121
794,2056991.6675400746
796,1912122.286436368
798,1783069.2196949078
800,1663500.214270693
802,1548744.6415391257
804,1440089.3704584274
806,1338355.7413583586
808,1246002.4351940232
810,1164641.9993123675
812,1094313.8934356393
814,1033315.1507154639
816,979276.3012057306
818,928884.3489745458
820,880151.1850921786
822,831067.2044299131
824,781134.7456778135
826,731197.4373941015
828,682133.9307999852
830,635157.065687494
832,590767.9318637582
834,549817.9262336656
836,511926.9827578021
838,476508.58827418834
840,442988.8091633684
842,410512.7161371145
844,378885.83903410326
846,347759.8550145639
848,317145.038704723
850,286997.5341464601
852,257814.11993689087
854,229635.74166079867
856,202883.51438950063
858,177548.2583061767
860,153963.78261275878
862,132580.8515415665
864,113288.53811543316
866,96239.40874515912
868,81413.00428997858
870,68826.20859127876
872,58133.754868965356
874,49160.33286656182
876,41666.7751322839
878,35497.06635140222
880,30295.018445045593
882,25695.68578759554
884,21591.37521759164
886,17852.922836174053
888,14389.809163301048
890,11160.697668091325
892,8122.388938503005
894,5540.658797514908
896,3560.8201047046186
898,2067.8082667675035
900,1036.1379326991748
902,389.7262820249188
904,91.05201843704549
906,33.85408597934234
908,10.175341117526877
910,0.4798427012002451
912,-3.482973111878331
914,2.393407046365594
916,-5.54246237681494
918,-0.29287613119402345
920,-2.3379566926154904
922,4.289920058427215
924,0.9442159283387628
926,-2.7336637591896857
928,1.0006701908683229
930,-1.3057717257606596
932,1.5404292547943992
934,4.001179039549514
936,-1.414773894536123
938,3.248233771030033
940,0.4896997775772239
942,3.269850699677664
944,0.8757233738836303
946,1.835094323646329
948,-1.5911823412967454
950,0.22756291881490442
952,1.4645588048001232
954,3.043621082643513
956,0.027056986644400358
958,-0.10659459427895207
960,-0.7023202398106899
962,-2.0064684457895754
964,-3.0020412361544704
966,-2.2327748367148637
968,-2.2451702637504916
970,3.087313082970052
972,-1.474238603491238
974,-1.3750943045639343
976,0.09099228775895851
978,-4.359327552662422
980,0.17173412192045567
982,0.5883557203648353
984,-0.6237451035931326
986,0.24693956783995888
988,-1.1733774690472267
990,1.089032408027303
992,0.5823660453244227
994,0.22070109661222787
996,-2.4283186811864717
998,-1.410528741235163
