wave,flux
336,-1.4528090597432657
338,3.7389849936697894
340,-0.3007010089761626
342,-4.464349501873647
344,0.17907739412449097
346,3.4500267944797365
348,0.2854723199437322
350,-1.8045161620314472
352,-0.09204642830075098
354,-2.1049632544335
356,16.378972867736145
358,334.83695211569557
360,1432.095300004286
362,3401.3882638261234
364,6020.698588166962
366,8987.559625813532
368,12392.600951646427
370,16696.862992507606
372,22017.508710686245
374,28285.639550802392
376,35267.86855001745
378,43048.122942781
380,51934.135571672006
382,62594.363014442446
384,75729.25752109435
386,91567.17690902587
388,109574.8248249359
390,129464.47962825466
392,152903.981734401
394,179988.4286872116
396,209265.7668328863
398,237073.55495933443
400,263129.2433118376
402,288110.58793495834
404,314237.5533801425
406,342752.16908203403
408,375155.37902673584
410,412359.2575084103
412,454806.4835655134
414,502684.94692240487
416,559620.6735010201
418,634132.486077299
420,743604.9926185207
422,911635.4885128856
424,1161546.069851856
426,1506526.110636084
428,1939841.4614853475
430,2433486.371001972
432,2948191.4096018556
434,3445055.7902787817
436,3902005.9873363185
438,4320134.445854235
440,4713575.342465803
442,5078170.385491633
444,5405759.862966469
446,5676306.558730696
448,5863120.255746157
450,5972789.40186123
452,6025665.351674836
454,6041212.983955687
456,6041152.847867869
458,6041056.735813231
460,6041598.18986733
462,6041285.339192107
464,6041508.377144951
466,6040827.302308703
468,6041744.595292198
470,6041337.89032959
472,6041610.765230858
474,6041191.806580356
476,6041510.117780677
478,6041662.033542723
480,6041146.113763278
482,6041205.440918166
484,6041494.090693378
486,6041649.3480998855
488,6041456.931661919
490,6041550.280066053
492,6041341.5189449135
494,6041327.617170029
496,6041543.116806813
498,6041485.57986676
500,6041676.968616895
502,6041397.427571217
504,6040879.385407441
506,6041105.3013338735
508,6041313.345602833
510,6041301.801154447
512,6041654.518008691
514,6041446.300186257
516,6041475.337404106
518,6041693.693245639
520,6041444.938617867
522,6041490.0463702455
524,6041692.451121606
526,6041196.616881314
528,6041240.427730309
530,6041583.984520043
532,6041550.867211523
534,6041635.524137104
536,6041418.666664154
538,6041126.288812276
540,6041167.224661476
542,6041207.51104783
544,6041623.05003938
546,6041291.860455617
548,6041440.909583202
550,6041378.283052173
552,6041477.610859967
554,6041634.976617032
556,6041529.331375728
558,6041321.680672376
560,6041251.8573980145
562,6041717.381382134
564,6041800.563758335
566,6041178.240255413
568,6041304.740623996
570,6041565.094353502
572,6041266.604554927
574,6041347.933020906
576,6041299.580036505
578,6041521.883308344
580,6041860.580904348
582,6041550.75010386
584,6041014.783235017
586,6041168.916125246
588,6041438.880479073
590,6041742.6243878575
592,6041711.176714889
594,6041411.256019536
596,6041189.556679516
598,6041285.940629595
600,6041762.801049103
602,6041323.076251865
604,6040877.626194213
606,6041239.1199716795
608,6041522.623120047
610,6041447.901377309
612,6041266.962041978
614,6041361.83002326
616,6041721.988967691
618,6041726.858141517
620,6041527.984724176
622,6041854.062695645
624,6042550.58025969
626,6041263.420137884
628,6040416.972377027
630,6041308.229530774
632,6040887.56509999
634,6039600.720167212
636,6039349.1530127525
638,6041081.338389879
640,6041769.846354441
642,6041073.09862374
644,6040999.234989414
646,6042218.468449364
648,6042932.020620318
650,6041378.50586998
652,6041010.790972986
654,6041868.955559909
656,6041047.261481062
658,6040067.4342284165
660,6040533.921815585
662,6042219.124532283
664,6042085.536870593
666,6039256.93703384
668,6040051.91055359
670,6043011.318697589
672,6041300.6988655
674,6040274.472040242
676,6041618.547932078
678,6041457.691608014
680,6041157.28533279
682,6041410.72121908
684,6041560.086967163
686,6041447.919953541
688,6040955.818999058
690,6041315.875341963
692,6041350.307975716
694,6041850.281893444
696,6041497.36767176
698,6041199.302168769
700,6041453.64627868
702,6041828.693192877
704,6040860.42770877
706,6041675.622792104
708,6041571.681644926
710,6041346.454989626
712,6041546.234560798
714,6041858.824615336
716,6041142.5820534965
718,6041286.403162461
720,6041703.1207177285
722,6041807.585318082
724,6041329.8607438
726,6041296.890614847
728,6041527.288726995
730,6041723.792105585
732,6041192.330811199
734,6041150.1016538385
736,6041704.398114255
738,6041255.137810724
740,6041344.973276121
742,6041402.044472554
744,6041509.896928869
746,6041611.23472158
748,6041281.529689905
750,6041392.455248062
752,6040981.1977447625
754,6041295.389267499
756,6041239.4416478425
758,6041271.659960353
760,6041533.037164191
762,6033170.558480699
764,5997309.196911797
766,5919816.184365741
768,5789128.623488824
770,5591227.92157777
772,5331562.926099856
774,5030824.995786329
776,4699258.250554136
778,4346757.545140255
780,3987299.429810042
782,3631624.3336451664
784,3286378.269654552
786,2964560.482130975
788,2677357.907088312
790,2431812.978824052
792,2227005.630354121
794,2056991.6675400746
796,1912122.286436368
798,1783069.2196949078
800,1663500.214270693
802,1548744.6415391257
804,1440089.3704584274
806,1338355.7413583586
808,1246002.4351940232
810,1164641.9993123675
812,1094313.8934356393
814,1033315.1507154639
816,979276.3012057306
818,928884.3489745458
820,880151.1850921786
822,831067.2044299131
824,781134.7456778135
826,731197.4373941015
828,682133.9307999852
830,635157.065687494
832,590767.9318637582
834,549817.9262336656
836,511926.9827578021
838,476508.58827418834
840,442988.8091633684
842,410512.7161371145
844,378885.83903410326
846,347759.8550145639
848,317145.038704723
850,286997.5341464601
852,257814.11993689087
854,229635.74166079867
856,202883.51438950063
858,177548.2583061767
860,153963.78261275878
862,132580.8515415665
864,113288.53811543316
866,96239.40874515912
868,81413.00428997858
870,68826.20859127876
872,58133.754868965356
874,49160.33286656182
876,41666.7751322839
878,35497.06635140222
880,30295.018445045593
882,25695.68578759554
884,21591.37521759164
886,17852.922836174053
888,14389.809163301048
890,11160.697668091325
892,8122.388938503005
894,5540.658797514908
896,3560.8201047046186
898,2067.8082667675035
900,1036.1379326991748
902,389.7262820249188
904,91.05201843704549
906,33.85408597934234
908,10.175341117526877
910,0.4798427012002451
912,-3.482973111878331
914,2.393407046365594
916,-5.54246237681494
918,-0.29287613119402345
920,-2.3379566926154904
922,4.289920058427215
924,0.9442159283387628
926,-2.7336637591896857
928,1.0006701908683229
930,-1.3057717257606596
932,1.5404292547943992
934,4.001179039549514
936,-1.414773894536123
938,3.248233771030033
940,0.4896997775772239
942,3.269850699677664
944,0.8757233738836303
946,1.835094323646329
948,-1.5911823412967454
950,0.22756291881490442
952,1.4645588048001232
954,3.043621082643513
956,0.027056986644400358
958,-0.10659459427895207
960,-0.7023202398106899
962,-2.0064684457895754
964,-3.0020412361544704
966,-2.2327748367148637
968,-2.2451702637504916
970,3.087313082970052
972,-1.474238603491238
974,-1.3750943045639343
976,0.09099228775895851
978,-4.359327552662422
980,0.17173412192045567
982,0.5883557203648353
984,-0.6237451035931326
986,0.24693956783995888
988,-1.1733774690472267
990,1.089032408027303
992,0.5823660453244227
994,0.22070109661222787
996,-2.4283186811864717
998,-1.410528741235163
