wave,flux
336,348.14866705846094
338,600.234803591792
340,996.5377815525383
342,1529.0052855179626
344,2169.7753823304797
346,2996.6169512123074
348,4096.775177532196
350,5411.28761473878
352,6896.089529309007
354,8684.749869777086
356,10850.647734779222
358,13316.229892754218
360,16072.276707210316
362,19227.395035103596
364,22792.44647363827
366,26905.155730860315
368,31902.675555303675
370,38067.30416788027
372,45753.26795241307
374,56009.70634934532
376,70660.48964701669
378,90995.13958208414
380,117146.28547311711
382,148426.2847454292
384,184861.79292101396
386,227857.33485936705
388,279840.8915061905
390,343201.2591228486
392,419095.22905003646
394,504888.77160446445
396,595481.5131139447
398,686350.5876443335
400,778890.6045557951
402,877376.5268142
404,986045.6043383221
406,1105006.4965807823
408,1230723.5464643857
410,1357227.2956612417
412,1481008.7434171375
414,1602314.3888190927
416,1725400.7732321406
418,1854520.7821513207
420,1990709.357934164
422,2129647.8566793036
424,2266301.1557285553
426,2399266.2405364723
428,2531327.1331422664
430,2668672.194855277
432,2816292.8364229696
434,2978056.1390016614
436,3157356.3901204844
438,3359838.8105555843
440,3590938.327862579
442,3853668.473623222
444,4146950.395935424
446,4464520.696218221
448,4795905.579689433
450,5119981.275643607
452,5414180.43164981
454,5659553.780525592
456,5839269.170830832
458,5950936.240892523
460,6011498.392739135
462,6036430.393889023
464,6041628.7626719065
466,6041354.156463796
468,6041653.800287543
470,6041142.742482908
472,6041600.062886293
474,6041893.14230553
476,6041427.636938642
478,6041377.742350748
480,6041234.105845722
482,6041246.22110139
484,6041266.113276938
486,6041622.69654824
488,6041373.956047414
490,6041554.4796426
492,6041469.068904355
494,6041079.170337815
496,6041397.061489765
498,6041355.881721309
500,6041292.433451565
502,6041721.97613676
504,6041139.279421719
506,6041625.991414064
508,6041962.631423569
510,6040944.8260202
512,6041704.023688996
514,6041362.46374741
516,6041340.776070349
518,6041833.704733458
520,6041491.111912531
522,6041135.3069377
524,6041132.847942894
526,6041143.350380607
528,6041411.004407835
530,6041614.080885672
532,6041644.312247609
534,6041356.869716851
536,6041348.66334954
538,6041374.207614962
540,6041228.65848041
542,6041403.209520968
544,6041386.292210649
546,6041150.26863652
548,6041326.4448924875
550,6041282.335746058
552,6041553.403616929
554,6041473.462096226
556,6041480.817916044
558,6041183.31317191
560,6040863.287847603
562,6041378.763929368
564,6041513.040601778
566,6041947.980106514
568,6041387.850057295
570,6041149.588822383
572,6041636.9507613145
574,6041580.460558607
576,6041518.511784591
578,6041384.124189063
580,6041118.347270844
582,6041297.167922542
584,6041372.502115363
586,6040741.974070017
588,6041326.872730435
590,6041244.1638646545
592,6041494.398625253
594,6041538.487414436
596,6040903.987101058
598,6041088.418073213
600,6041765.052467508
602,6042007.843570184
604,6041488.792324525
606,6041097.553475949
608,6041571.70810818
610,6041376.092596814
612,6041455.196215442
614,6041765.60353506
616,6041397.79713747
618,6041270.715477371
620,6041462.562482917
622,6041801.950951543
624,6042057.963870596
626,6041712.977682282
628,6041617.725280559
630,6042112.313542167
632,6042201.687706633
634,6042448.700665211
636,6042427.347370853
638,6041206.559196736
640,6040730.063994171
642,6041128.832984604
644,6041347.686155632
646,6042234.472824197
648,6042446.750309781
650,6040444.936761237
652,6039961.442515739
654,6041340.464040848
656,6041697.68408595
658,6041366.4431154085
660,6041569.527845202
662,6041377.105920514
664,6041484.413599041
666,6041443.744953824
668,6041107.990810816
670,6041563.760993683
672,6041267.206276616
674,6041163.48384329
676,6041536.128915834
678,6041346.243453491
680,6041150.289956291
682,6041410.314774397
684,6041560.064687422
686,6041447.9187860545
688,6040955.81893969
690,6041315.875338955
692,6041350.307975556
694,6041850.281893436
696,6041497.367671758
698,6041199.302168769
700,6041453.64627868
702,6041828.693192877
704,6040860.42770877
706,6041675.622792104
708,6041571.681644926
710,6041346.454989626
712,6041546.234560798
714,6041858.824615336
716,6041142.5820534965
718,6041286.403162461
720,6041703.1207177285
722,6041807.585318082
724,6041329.8607438
726,6041296.890614847
728,6041527.288726995
730,6041723.792105585
732,6041192.330811199
734,6041150.1016538385
736,6041704.398114255
738,6041255.137810724
740,6041344.973276121
742,6041402.044472554
744,6041509.896928869
746,6041611.23472158
748,6041281.529689905
750,6041392.455248062
752,6040981.1977447625
754,6041295.389267499
756,6041239.4416478425
758,6041271.659960353
760,6041533.037164191
762,6033170.558480699
764,5997309.196911797
766,5919816.184365741
768,5789128.623488824
770,5591227.92157777
772,5331562.926099856
774,5030824.995786329
776,4699258.250554136
778,4346757.545140255
780,3987299.429810042
782,3631624.3336451664
784,3286378.269654552
786,2964560.482130975
788,2677357.907088312
790,2431812.978824052
792,2227005.630354121
794,2056991.6675400746
796,1912122.286436368
798,1783069.2196949078
800,1663500.214270693
802,1548744.6415391257
804,1440089.3704584274
806,1338355.7413583586
808,1246002.4351940232
810,1164641.9993123675
812,1094313.8934356393
814,1033315.1507154639
816,979276.3012057306
818,928884.3489745458
820,880151.1850921786
822,831067.2044299131
824,781134.7456778135
826,731197.4373941015
828,682133.9307999852
830,635157.065687494
832,590767.9318637582
834,549817.9262336656
836,511926.9827578021
838,476508.58827418834
840,442988.8091633684
842,410512.7161371145
844,378885.83903410326
846,347759.8550145639
848,317145.038704723
850,286997.5341464601
852,257814.11993689087
854,229635.74166079867
856,202883.51438950063
858,177548.2583061767
860,153963.78261275878
862,132580.8515415665
864,113288.53811543316
866,96239.40874515912
868,81413.00428997858
870,68826.20859127876
872,58133.754868965356
874,49160.33286656182
876,41666.7751322839
878,35497.06635140222
880,30295.018445045593
882,25695.68578759554
884,21591.37521759164
886,17852.922836174053
888,14389.809163301048
890,11160.697668091325
892,8122.388938503005
894,5540.658797514908
896,3560.8201047046186
898,2067.8082667675035
900,1036.1379326991748
902,389.7262820249188
904,91.05201843704549
906,33.85408597934234
908,10.175341117526877
910,0.4798427012002451
912,-3.482973111878331
914,2.393407046365594
916,-5.54246237681494
918,-0.29287613119402345
920,-2.3379566926154904
922,4.289920058427215
924,0.9442159283387628
926,-2.7336637591896857
928,1.0006701908683229
930,-1.3057717257606596
932,1.5404292547943992
934,4.001179039549514
936,-1.414773894536123
938,3.248233771030033
940,0.4896997775772239
942,3.269850699677664
944,0.8757233738836303
946,1.835094323646329
948,-1.5911823412967454
950,0.22756291881490442
952,1.4645588048001232
954,3.043621082643513
956,0.027056986644400358
958,-0.10659459427895207
960,-0.7023202398106899
962,-2.0064684457895754
964,-3.0020412361544704
966,-2.2327748367148637
968,-2.2451702637504916
970,3.087313082970052
972,-1.474238603491238
974,-1.3750943045639343
976,0.09099228775895851
978,-4.359327552662422
980,0.17173412192045567
982,0.5883557203648353
984,-0.6237451035931326
986,0.24693956783995888
988,-1.1733774690472267
990,1.089032408027303
992,0.5823660453244227
994,0.22070109661222787
996,-2.4283186811864717
998,-1.410528741235163
