wave,flux
336,0.04866306764357256
338,3.203446146828956
340,128.98723104057927
342,2601.0256245701567
344,9580.505711591548
346,19316.489292322247
348,30511.53878949963
350,43074.57966873037
352,56301.99208935099
354,70142.95378781264
356,86022.74533877273
358,105311.86842632054
360,127883.93755690205
362,153842.76591409644
364,184413.42074758708
366,219541.96693511453
368,259462.99729313256
370,303252.78738672833
372,347741.12247368024
374,389465.34096334036
376,427894.15347448096
378,466965.62710542715
380,510566.3517682875
382,562699.5767349594
384,628656.5412057512
386,715536.210590185
388,834729.7728712442
390,1021978.0816652856
392,1359579.26093725
394,1974621.646944724
396,2944600.889776311
398,4095270.643867893
400,5121670.432743088
402,5741305.358300749
404,5997394.3502965635
406,6041181.005243082
408,6041371.50553987
410,6041655.127257504
412,6041181.502145647
414,6041395.201612789
416,6041537.913151669
418,6041810.301165811
420,6041256.643446192
422,6041442.870198841
424,6041202.7546915095
426,6041089.313384661
428,6041600.297502408
430,6040915.657222627
432,6041649.422180801
434,6041247.972909496
436,6041743.101436439
438,6041486.090012731
440,6041557.368317467
442,6041608.812035336
444,6041651.009629212
446,6041218.335059097
448,6041105.063999987
450,6041651.82644755
452,6041089.538828485
454,6041435.476326531
456,6041655.08292701
458,6041443.714325283
460,6041849.860444952
462,6041454.668163221
464,6041548.067572666
466,6041431.996308139
468,6041400.863217391
470,6041301.988059811
472,6041358.984353229
474,6041303.431603063
476,6040935.09550313
478,6041466.668482884
480,6041254.924982337
482,6041151.770864593
484,6041730.827885318
486,6041426.820280805
488,6041179.333067218
490,6041786.307467387
492,6041354.925800718
494,6041367.169796455
496,6041737.384833586
498,6041349.173545887
500,6040986.491829966
502,6041541.493467416
504,6041396.922501946
506,6041027.443075866
508,6041652.436942452
510,6041424.078503636
512,6041576.290533786
514,6041436.655838761
516,6041408.055461729
518,6041568.764174372
520,6041311.633421761
522,6041604.121942476
524,6041321.024390904
526,6041035.624266158
528,6041231.213257738
530,6041801.592355096
532,6041312.275729506
534,6041255.189238801
536,6041439.047282603
538,6041249.24218718
540,6041673.487427944
542,6041505.988826967
544,6041708.905593633
546,6041674.616005669
548,6041648.963594586
550,6041145.107037941
552,6041444.806988138
554,6041339.938963102
556,6041223.981049281
558,6041475.067303161
560,6041192.346565115
562,6041372.72093102
564,6041563.208194315
566,6041645.37278223
568,6041577.466109148
570,6041264.086419763
572,6041307.5371104
574,6041092.248440641
576,6041784.811094297
578,6041930.692072946
580,6041287.104219848
582,6041018.282788527
584,6041366.091740486
586,6041728.690041922
588,6041415.59784032
590,6041454.509659862
592,6041162.540709378
594,6041109.78163671
596,6041543.670162021
598,6041374.147613801
600,6041265.476744299
602,6041388.038849847
604,6041477.958799387
606,6041445.27173975
608,6041427.635921243
610,6041316.895762972
612,6041360.730397106
614,6041557.196760844
616,6041800.467948785
618,6042234.152259897
620,6041651.472819169
622,6041051.868705935
624,6041975.438219354
626,6041629.789248461
628,6041312.728501871
630,6041988.176745059
632,6041688.399873042
634,6042073.08222318
636,6042533.882238969
638,6041067.510890286
640,6041496.428521187
642,6042928.817271396
644,6042204.128519318
646,6042810.785936355
648,6044504.286543704
650,6044088.9049797915
652,6041166.470468793
654,6038391.334137395
656,6039330.403985532
658,6041967.5928941965
660,6043507.249409486
662,6042462.205837871
664,6040170.325216852
666,6039017.364899559
668,6040816.659349903
670,6043782.441824299
672,6044006.053592444
674,6042649.628027792
676,6041836.521387965
678,6041988.5950725265
680,6042475.305261354
682,6042114.730911505
684,6041451.163606874
686,6041448.809362294
688,6040955.892532358
690,6041315.879069415
692,6041350.308174431
694,6041850.281905593
696,6041497.367672674
698,6041199.302168852
700,6041453.646278689
702,6041828.693192878
704,6040860.42770877
706,6041675.622792104
708,6041571.681644926
710,6041346.454989626
712,6041546.234560798
714,6041858.824615336
716,6041142.5820534965
718,6041286.403162461
720,6041703.1207177285
722,6041807.585318082
724,6041329.8607438
726,6041296.890614847
728,6041527.288726995
730,6041723.792105585
732,6041192.330811199
734,6041150.1016538385
736,6041704.398114255
738,6041255.137810724
740,6041344.973276121
742,6041402.044472554
744,6041509.896928869
746,6041611.23472158
748,6041281.529689905
750,6041392.455248062
752,6040981.1977447625
754,6041295.389267499
756,6041239.4416478425
758,6041271.659960353
760,6041533.037164191
762,6033170.558480699
764,5997309.196911797
766,5919816.184365741
768,5789128.623488824
770,5591227.92157777
772,5331562.926099856
774,5030824.995786329
776,4699258.250554136
778,4346757.545140255
780,3987299.429810042
782,3631624.3336451664
784,3286378.269654552
786,2964560.482130975
788,2677357.907088312
790,2431812.978824052
792,2227005.630354121
794,2056991.6675400746
796,1912122.286436368
798,1783069.2196949078
800,1663500.214270693
802,1548744.6415391257
804,1440089.3704584274
806,1338355.7413583586
808,1246002.4351940232
810,1164641.9993123675
812,1094313.8934356393
814,1033315.1507154639
816,979276.3012057306
818,928884.3489745458
820,880151.1850921786
822,831067.2044299131
824,781134.7456778135
826,731197.4373941015
828,682133.9307999852
830,635157.065687494
832,590767.9318637582
834,549817.9262336656
836,511926.9827578021
838,476508.58827418834
840,442988.8091633684
842,410512.7161371145
844,378885.83903410326
846,347759.8550145639
848,317145.038704723
850,286997.5341464601
852,257814.11993689087
854,229635.74166079867
856,202883.51438950063
858,177548.2583061767
860,153963.78261275878
862,132580.8515415665
864,113288.53811543316
866,96239.40874515912
868,81413.00428997858
870,68826.20859127876
872,58133.754868965356
874,49160.33286656182
876,41666.7751322839
878,35497.06635140222
880,30295.018445045593
882,25695.68578759554
884,21591.37521759164
886,17852.922836174053
888,14389.809163301048
890,11160.697668091325
892,8122.388938503005
894,5540.658797514908
896,3560.8201047046186
898,2067.8082667675035
900,1036.1379326991748
902,389.7262820249188
904,91.05201843704549
906,33.85408597934234
908,10.175341117526877
910,0.4798427012002451
912,-3.482973111878331
914,2.393407046365594
916,-5.54246237681494
918,-0.29287613119402345
920,-2.3379566926154904
922,4.289920058427215
924,0.9442159283387628
926,-2.7336637591896857
928,1.0006701908683229
930,-1.3057717257606596
932,1.5404292547943992
934,4.001179039549514
936,-1.414773894536123
938,3.248233771030033
940,0.4896997775772239
942,3.269850699677664
944,0.8757233738836303
946,1.835094323646329
948,-1.5911823412967454
950,0.22756291881490442
952,1.4645588048001232
954,3.043621082643513
956,0.027056986644400358
958,-0.10659459427895207
960,-0.7023202398106899
962,-2.0064684457895754
964,-3.0020412361544704
966,-2.2327748367148637
968,-2.2451702637504916
970,3.087313082970052
972,-1.474238603491238
974,-1.3750943045639343
976,0.09099228775895851
978,-4.359327552662422
980,0.17173412192045567
982,0.5883557203648353
984,-0.6237451035931326
986,0.24693956783995888
988,-1.1733774690472267
990,1.089032408027303
992,0.5823660453244227
994,0.22070109661222787
996,-2.4283186811864717
998,-1.410528741235163
