wave,flux
336,2904.88825964117
338,4444.309526270194
340,6593.426249915616
342,9324.885925962553
344,12535.734567892312
346,16161.617129160162
348,20408.30833424545
350,25507.06046520165
352,31506.835052545513
354,38384.8198091298
356,46231.84656617056
358,54905.00778889074
360,64328.64845535096
362,74661.90940875791
364,86112.02518641304
366,99385.6948201881
368,116030.87359115675
370,139557.29302410936
372,177519.28021308384
374,241814.99541773295
376,341513.20348997077
378,472848.51761024795
380,619626.3905786304
382,767517.6667710182
384,917948.9325771698
386,1085548.801482496
388,1285320.846823221
390,1522843.0885383592
392,1793300.55065876
394,2082817.9269169345
396,2372280.882203553
398,2643520.5942918365
400,2884999.4695481737
402,3095761.931503392
404,3286406.56812255
406,3474520.8484909213
408,3676560.4796551936
410,3898687.0440948894
412,4131216.688498803
414,4358284.81633087
416,4571126.788851016
418,4771654.026502262
420,4972525.888130462
422,5180081.652444828
424,5393700.845940782
426,5598258.218472503
428,5772458.572398122
430,5903413.168365539
432,5984152.260920031
434,6023808.064183788
436,6038764.464115256
438,6041326.266069493
440,6041601.994845739
442,6041550.174005843
444,6041634.516050984
446,6041379.583942141
448,6041426.673583542
450,6041390.583312276
452,6041836.129280444
454,6041855.570285136
456,6041562.644603395
458,6041172.104925017
460,6041527.9459701
462,6041679.458014986
464,6041300.14842335
466,6041674.363305915
468,6041338.221273207
470,6040821.924642843
472,6041644.836578708
474,6042101.647012356
476,6041666.855564664
478,6041443.412476446
480,6041370.78427163
482,6041277.559471216
484,6041144.220017934
486,6041247.249327079
488,6040951.573405675
490,6041516.949286762
492,6041646.319495336
494,6041298.603830404
496,6041439.190242697
498,6041531.618872536
500,6041227.949996062
502,6041347.051304989
504,6041464.0538818585
506,6041771.910655392
508,6041897.364678172
510,6041266.662886768
512,6041645.422605943
514,6041356.915314965
516,6041255.934823362
518,6041533.076153713
520,6041207.844694413
522,6041432.896558067
524,6041284.460251962
526,6041715.7985184565
528,6041427.861307187
530,6041293.551797699
532,6041714.128194253
534,6041668.482913583
536,6041534.08410816
538,6041665.333578254
540,6041061.787207631
542,6041048.0878337
544,6041256.00180037
546,6041230.2232325
548,6041624.585936656
550,6041485.890306419
552,6041264.391054499
554,6041349.033521682
556,6041399.3426615875
558,6041692.657652115
560,6041638.291985154
562,6041216.599751599
564,6041394.421590373
566,6041240.128628791
568,6041338.293029396
570,6041277.925581093
572,6041308.44835977
574,6041971.766074305
576,6041777.717405883
578,6041591.240692651
580,6041454.252116574
582,6041634.707355585
584,6041960.124252305
586,6041172.191751038
588,6041373.1853966545
590,6041559.565518372
592,6041663.918733077
594,6041617.63683132
596,6041325.463980552
598,6041153.065811102
600,6041171.540302392
602,6041418.859810386
604,6041619.373230291
606,6041532.439821161
608,6041262.005097816
610,6041104.809355968
612,6041234.450673449
614,6041297.828285301
616,6040888.801108012
618,6040355.77511537
620,6040136.438738447
622,6040196.27771275
624,6040383.349380957
626,6041135.554496097
628,6041345.240036367
630,6040503.578476167
632,6039959.337662766
634,6040485.655128897
636,6040985.859038
638,6040203.940193726
640,6041228.283477926
642,6041785.479988747
644,6038739.857491925
646,6039913.713887731
648,6042433.0896612685
650,6041494.091753477
652,6041771.111154283
654,6041397.716621118
656,6041151.075900063
658,6041511.422138647
660,6041551.262027468
662,6041377.4867146555
664,6041484.487440433
666,6041443.750089423
668,6041107.991048775
670,6041563.760999665
672,6041267.2062764475
674,6041163.483843256
676,6041536.128915831
678,6041346.24345349
680,6041150.289956291
682,6041410.314774397
684,6041560.064687422
686,6041447.9187860545
688,6040955.81893969
690,6041315.875338955
692,6041350.307975556
694,6041850.281893436
696,6041497.367671758
698,6041199.302168769
700,6041453.64627868
702,6041828.693192877
704,6040860.42770877
706,6041675.622792104
708,6041571.681644926
710,6041346.454989626
712,6041546.234560798
714,6041858.824615336
716,6041142.5820534965
718,6041286.403162461
720,6041703.1207177285
722,6041807.585318082
724,6041329.8607438
726,6041296.890614847
728,6041527.288726995
730,6041723.792105585
732,6041192.330811199
734,6041150.1016538385
736,6041704.398114255
738,6041255.137810724
740,6041344.973276121
742,6041402.044472554
744,6041509.896928869
746,6041611.23472158
748,6041281.529689905
750,6041392.455248062
752,6040981.1977447625
754,6041295.389267499
756,6041239.4416478425
758,6041271.659960353
760,6041533.037164191
762,6033170.558480699
764,5997309.196911797
766,5919816.184365741
768,5789128.623488824
770,5591227.92157777
772,5331562.926099856
774,5030824.995786329
776,4699258.250554136
778,4346757.545140255
780,3987299.429810042
782,3631624.3336451664
784,3286378.269654552
786,2964560.482130975
788,2677357.907088312
790,2431812.978824052
792,2227005.630354121
794,2056991.6675400746
796,1912122.286436368
798,1783069.2196949078
800,1663500.214270693
802,1548744.6415391257
804,1440089.3704584274
806,1338355.7413583586
808,1246002.4351940232
810,1164641.9993123675
812,1094313.8934356393
814,1033315.1507154639
816,979276.3012057306
818,928884.3489745458
820,880151.1850921786
822,831067.2044299131
824,781134.7456778135
826,731197.4373941015
828,682133.9307999852
830,635157.065687494
832,590767.9318637582
834,549817.9262336656
836,511926.9827578021
838,476508.58827418834
840,442988.8091633684
842,410512.7161371145
844,378885.83903410326
846,347759.8550145639
848,317145.038704723
850,286997.5341464601
852,257814.11993689087
854,229635.74166079867
856,202883.51438950063
858,177548.2583061767
860,153963.78261275878
862,132580.8515415665
864,113288.53811543316
866,96239.40874515912
868,81413.00428997858
870,68826.20859127876
872,58133.754868965356
874,49160.33286656182
876,41666.7751322839
878,35497.06635140222
880,30295.018445045593
882,25695.68578759554
884,21591.37521759164
886,17852.922836174053
888,14389.809163301048
890,11160.697668091325
892,8122.388938503005
894,5540.658797514908
896,3560.8201047046186
898,2067.8082667675035
900,1036.1379326991748
902,389.7262820249188
904,91.05201843704549
906,33.85408597934234
908,10.175341117526877
910,0.4798427012002451
912,-3.482973111878331
914,2.393407046365594
916,-5.54246237681494
918,-0.29287613119402345
920,-2.3379566926154904
922,4.289920058427215
924,0.9442159283387628
926,-2.7336637591896857
928,1.0006701908683229
930,-1.3057717257606596
932,1.5404292547943992
934,4.001179039549514
936,-1.414773894536123
938,3.248233771030033
940,0.4896997775772239
942,3.269850699677664
944,0.8757233738836303
946,1.835094323646329
948,-1.5911823412967454
950,0.22756291881490442
952,1.4645588048001232
954,3.043621082643513
956,0.027056986644400358
958,-0.10659459427895207
960,-0.7023202398106899
962,-2.0064684457895754
964,-3.0020412361544704
966,-2.2327748367148637
968,-2.2451702637504916
970,3.087313082970052
972,-1.474238603491238
974,-1.3750943045639343
976,0.09099228775895851
978,-4.359327552662422
980,0.17173412192045567
982,0.5883557203648353
984,-0.6237451035931326
986,0.24693956783995888
988,-1.1733774690472267
990,1.089032408027303
992,0.5823660453244227
994,0.22070109661222787
996,-2.4283186811864717
998,-1.410528741235163
