wave,flux
336,2.2383391919317854
338,5.462721724168182
340,18.098689028988556
342,39.60440480808708
344,86.09359636994171
346,169.5679298259098
348,286.84953594687306
350,467.2573135832918
352,765.9935231645587
354,1129.4887543183313
356,1528.3573925005228
358,2110.6142412355503
360,3020.253455180972
362,4216.632779894534
364,5594.263087359581
366,7211.803123061432
368,9137.771198206228
370,11376.24459465895
372,13917.9012424167
374,16821.816024386913
376,20560.82523249193
378,25697.679752879223
380,32375.264250288186
382,39296.00529406081
384,46294.94491746406
386,54170.96518392552
388,64327.53061508691
390,79718.26752957121
392,107621.11235522853
394,148295.605181334
396,195839.28459267315
398,237800.46993363035
400,274702.99990096013
402,310372.8034048326
404,351224.76976950036
406,398055.9554618214
408,452145.2562551016
410,515895.2640823056
412,590312.72453096
414,672385.3769614821
416,756493.1437004174
418,840294.0366690091
420,928460.2601417376
422,1031629.9818853405
424,1160147.3525514868
426,1318323.2798704214
428,1501759.651441412
430,1696824.6172516495
432,1887427.1065636692
434,2062039.798884126
436,2217312.5967792436
438,2361348.502299553
440,2504673.7608510405
442,2656755.9025334157
444,2823558.2741416716
446,3008976.978162553
448,3220758.460061267
450,3471194.6482380386
452,3780078.6621431457
454,4154328.0388880162
456,4569439.573682395
458,4992647.210341344
460,5379002.376084635
462,5675941.7259369455
464,5871457.346041968
466,5983828.391811397
468,6031417.620793865
470,6041553.38792423
472,6040963.981667053
474,6041627.903999984
476,6041697.443111436
478,6041283.905006958
480,6042029.538315536
482,6040982.234229646
484,6041783.651896488
486,6041459.229273682
488,6041366.357856488
490,6041750.189146391
492,6041585.506136897
494,6041090.88932039
496,6041540.539410981
498,6041616.347415566
500,6041391.971592667
502,6041326.163556048
504,6041211.236951412
506,6041436.020326683
508,6041499.8562802
510,6040760.124601752
512,6041077.730032755
514,6041244.209369186
516,6041399.271617003
518,6041543.554775617
520,6041457.154624999
522,6041562.900499424
524,6041581.654627102
526,6041063.549716889
528,6041494.974936139
530,6041717.000589076
532,6041393.236148568
534,6041223.368911266
536,6041524.448093755
538,6041777.993329063
540,6041178.470936804
542,6041349.516483272
544,6041478.300373063
546,6041735.9902422875
548,6041278.099638089
550,6041520.970941011
552,6041450.480397988
554,6041579.623167192
556,6041537.267552225
558,6041345.4300096845
560,6041430.126927366
562,6041247.895308232
564,6041069.585640601
566,6041313.93937261
568,6041045.111353903
570,6041283.223508371
572,6041191.690621963
574,6041421.388979392
576,6041173.11457721
578,6041375.859335935
580,6041253.205080261
582,6041072.31459262
584,6041521.077528574
586,6041171.463333388
588,6041228.181886326
590,6041623.567337234
592,6041411.666048487
594,6041427.212550582
596,6041670.4144211095
598,6040959.840988653
600,6040963.964786525
602,6041498.95243767
604,6041761.719980739
606,6041624.838279773
608,6041519.095346907
610,6041413.65885642
612,6041513.351689126
614,6041545.682141641
616,6041226.889230502
618,6041247.368433157
620,6041848.074353184
622,6043070.8801004365
624,6044165.0039494885
626,6042925.421354024
628,6041259.7778086085
630,6041126.264450166
632,6041540.280324349
634,6041443.519140997
636,6041387.643597961
638,6042452.178727232
640,6042602.044660821
642,6041087.65204028
644,6039787.564026389
646,6042536.575433821
648,6041766.010256182
650,6041538.8501559235
652,6042132.941943416
654,6041471.5915119145
656,6040866.400602196
658,6041829.048541393
660,6041718.933222285
662,6041365.47515926
664,6041482.158229292
666,6041443.588095013
668,6041107.983542715
670,6041563.760810978
672,6041267.206281728
674,6041163.483844324
676,6041536.128915925
678,6041346.243453496
680,6041150.289956291
682,6041410.314774397
684,6041560.064687422
686,6041447.9187860545
688,6040955.81893969
690,6041315.875338955
692,6041350.307975556
694,6041850.281893436
696,6041497.367671758
698,6041199.302168769
700,6041453.64627868
702,6041828.693192877
704,6040860.42770877
706,6041675.622792104
708,6041571.681644926
710,6041346.454989626
712,6041546.234560798
714,6041858.824615336
716,6041142.5820534965
718,6041286.403162461
720,6041703.1207177285
722,6041807.585318082
724,6041329.8607438
726,6041296.890614847
728,6041527.288726995
730,6041723.792105585
732,6041192.330811199
734,6041150.1016538385
736,6041704.398114255
738,6041255.137810724
740,6041344.973276121
742,6041402.044472554
744,6041509.896928869
746,6041611.23472158
748,6041281.529689905
750,6041392.455248062
752,6040981.1977447625
754,6041295.389267499
756,6041239.4416478425
758,6041271.659960353
760,6041533.037164191
762,6033170.558480699
764,5997309.196911797
766,5919816.184365741
768,5789128.623488824
770,5591227.92157777
772,5331562.926099856
774,5030824.995786329
776,4699258.250554136
778,4346757.545140255
780,3987299.429810042
782,3631624.3336451664
784,3286378.269654552
786,2964560.482130975
788,2677357.907088312
790,2431812.978824052
792,2227005.630354121
794,2056991.6675400746
796,1912122.286436368
798,1783069.2196949078
800,1663500.214270693
802,1548744.6415391257
804,1440089.3704584274
806,1338355.7413583586
808,1246002.4351940232
810,1164641.9993123675
812,1094313.8934356393
814,1033315.1507154639
816,979276.3012057306
818,928884.3489745458
820,880151.1850921786
822,831067.2044299131
824,781134.7456778135
826,731197.4373941015
828,682133.9307999852
830,635157.065687494
832,590767.9318637582
834,549817.9262336656
836,511926.9827578021
838,476508.58827418834
840,442988.8091633684
842,410512.7161371145
844,378885.83903410326
846,347759.8550145639
848,317145.038704723
850,286997.5341464601
852,257814.11993689087
854,229635.74166079867
856,202883.51438950063
858,177548.2583061767
860,153963.78261275878
862,132580.8515415665
864,113288.53811543316
866,96239.40874515912
868,81413.00428997858
870,68826.20859127876
872,58133.754868965356
874,49160.33286656182
876,41666.7751322839
878,35497.06635140222
880,30295.018445045593
882,25695.68578759554
884,21591.37521759164
886,17852.922836174053
888,14389.809163301048
890,11160.697668091325
892,8122.388938503005
894,5540.658797514908
896,3560.8201047046186
898,2067.8082667675035
900,1036.1379326991748
902,389.7262820249188
904,91.05201843704549
906,33.85408597934234
908,10.175341117526877
910,0.4798427012002451
912,-3.482973111878331
914,2.393407046365594
916,-5.54246237681494
918,-0.29287613119402345
920,-2.3379566926154904
922,4.289920058427215
924,0.9442159283387628
926,-2.7336637591896857
928,1.0006701908683229
930,-1.3057717257606596
932,1.5404292547943992
934,4.001179039549514
936,-1.414773894536123
938,3.248233771030033
940,0.4896997775772239
942,3.269850699677664
944,0.8757233738836303
946,1.835094323646329
948,-1.5911823412967454
950,0.22756291881490442
952,1.4645588048001232
954,3.043621082643513
956,0.027056986644400358
958,-0.10659459427895207
960,-0.7023202398106899
962,-2.0064684457895754
964,-3.0020412361544704
966,-2.2327748367148637
968,-2.2451702637504916
970,3.087313082970052
972,-1.474238603491238
974,-1.3750943045639343
976,0.09099228775895851
978,-4.359327552662422
980,0.17173412192045567
982,0.5883557203648353
984,-0.6237451035931326
986,0.24693956783995888
988,-1.1733774690472267
990,1.089032408027303
992,0.5823660453244227
994,0.22070109661222787
996,-2.4283186811864717
998,-1.410528741235163
