wave,flux
336,0.8258832337677628
338,-0.05327772796991805
340,19.217607357829962
342,277.6748107007368
344,1200.2709609176131
346,3867.231614112781
348,8634.393506663337
350,13778.591085597644
352,19038.59881564699
354,25458.536972137917
356,32770.84654777391
358,42342.32030470645
360,61353.08387839359
362,89983.14063469924
364,116506.40703038182
366,138220.77800256596
368,160765.4901439397
370,187691.59684542177
372,219252.04794387627
374,256517.2462726094
376,303629.64351857407
378,360752.26760618837
380,423554.48601427145
382,485427.05058148655
384,552145.6371422447
386,632619.7758549394
388,729002.3748495512
390,841290.2568216692
392,994432.5700036783
394,1210608.6472421596
396,1510828.7370000067
398,1910936.8412213163
400,2454803.502784908
402,3170043.467023865
404,4014665.3761148388
406,4837712.033669649
408,5480097.61082864
410,5850531.90895554
412,6005630.773383469
414,6040839.54812057
416,6041300.259525053
418,6041495.284863147
420,6041322.974562908
422,6041263.241673135
424,6041384.483114814
426,6041441.409288576
428,6041514.405787851
430,6041161.736572589
432,6041336.374332578
434,6041214.82651074
436,6041352.465973944
438,6041131.917322826
440,6040978.111304571
442,6041142.8120266795
444,6041457.363726764
446,6040782.681135521
448,6041553.138743526
450,6041297.356236331
452,6041215.411951122
454,6041388.13479359
456,6041366.406281
458,6041242.220889824
460,6041657.30516677
462,6041407.434051981
464,6041385.1140254745
466,6041429.976656618
468,6041345.999768316
470,6040864.60330123
472,6041411.377546185
474,6041348.25568729
476,6041552.473236455
478,6041429.065198049
480,6041350.63386452
482,6041548.380784534
484,6041490.234694547
486,6041429.226776286
488,6041402.426481482
490,6041367.8572323825
492,6041829.853829702
494,6041286.627252926
496,6041495.20888091
498,6041725.848052414
500,6041434.438325174
502,6041443.575937949
504,6041290.97257648
506,6041351.346563312
508,6041630.0544785345
510,6041362.612097266
512,6041589.030937049
514,6041268.145207414
516,6041070.53010951
518,6042128.784392758
520,6041410.14472527
522,6041676.479216742
524,6041968.862822435
526,6041409.196632084
528,6041700.382062784
530,6041855.054780912
532,6041348.416510308
534,6041170.128477787
536,6041653.484901791
538,6041142.700030932
540,6041341.90848864
542,6041061.251680161
544,6041228.282577357
546,6041877.420120336
548,6041425.842391205
550,6041564.7872618
552,6042048.010129249
554,6041859.08058055
556,6041283.352046515
558,6041233.065862151
560,6041206.110982705
562,6041298.991367827
564,6041196.603263693
566,6041212.885567396
568,6041443.220184848
570,6041671.951706318
572,6041513.131369439
574,6041409.370793294
576,6041440.078902909
578,6041322.798705964
580,6041197.833662618
582,6041289.702725344
584,6041500.071660225
586,6041628.758244821
588,6041586.050372811
590,6041561.624735013
592,6041391.9355111765
594,6041417.320305569
596,6041555.650615795
598,6041406.396164791
600,6041751.49967168
602,6041469.593401074
604,6041179.898189203
606,6041340.477627804
608,6041169.395172889
610,6041197.811112674
612,6041448.701395204
614,6041371.66387559
616,6041091.770240951
618,6041951.215177177
620,6041587.7719132
622,6040148.856785051
624,6040010.089694885
626,6040226.315764053
628,6040568.406106483
630,6041194.2435533395
632,6041877.488040037
634,6042111.778667404
636,6041959.232551121
638,6041744.200818923
640,6040750.547220408
642,6040126.455177057
644,6041129.4859098615
646,6041652.779184025
648,6041643.893253354
650,6041401.304043245
652,6041705.780938852
654,6041397.6896906085
656,6041151.216782906
658,6041511.431213874
660,6041551.262288386
662,6041377.486709215
664,6041484.487439378
666,6041443.750089349
668,6041107.991048771
670,6041563.760999665
672,6041267.2062764475
674,6041163.483843256
676,6041536.128915831
678,6041346.24345349
680,6041150.289956291
682,6041410.314774397
684,6041560.064687422
686,6041447.9187860545
688,6040955.81893969
690,6041315.875338955
692,6041350.307975556
694,6041850.281893436
696,6041497.367671758
698,6041199.302168769
700,6041453.64627868
702,6041828.693192877
704,6040860.42770877
706,6041675.622792104
708,6041571.681644926
710,6041346.454989626
712,6041546.234560798
714,6041858.824615336
716,6041142.5820534965
718,6041286.403162461
720,6041703.1207177285
722,6041807.585318082
724,6041329.8607438
726,6041296.890614847
728,6041527.288726995
730,6041723.792105585
732,6041192.330811199
734,6041150.1016538385
736,6041704.398114255
738,6041255.137810724
740,6041344.973276121
742,6041402.044472554
744,6041509.896928869
746,6041611.23472158
748,6041281.529689905
750,6041392.455248062
752,6040981.1977447625
754,6041295.389267499
756,6041239.4416478425
758,6041271.659960353
760,6041533.037164191
762,6033170.558480699
764,5997309.196911797
766,5919816.184365741
768,5789128.623488824
770,5591227.92157777
772,5331562.926099856
774,5030824.995786329
776,4699258.250554136
778,4346757.545140255
780,3987299.429810042
782,3631624.3336451664
784,3286378.269654552
786,2964560.482130975
788,2677357.907088312
790,2431812.978824052
792,2227005.630354121
794,2056991.6675400746
796,1912122.286436368
798,1783069.2196949078
800,1663500.214270693
802,1548744.6415391257
804,1440089.3704584274
806,1338355.7413583586
808,1246002.4351940232
810,1164641.9993123675
812,1094313.8934356393
814,1033315.1507154639
816,979276.3012057306
818,928884.3489745458
820,880151.1850921786
822,831067.2044299131
824,781134.7456778135
826,731197.4373941015
828,682133.9307999852
830,635157.065687494
832,590767.9318637582
834,549817.9262336656
836,511926.9827578021
838,476508.58827418834
840,442988.8091633684
842,410512.7161371145
844,378885.83903410326
846,347759.8550145639
848,317145.038704723
850,286997.5341464601
852,257814.11993689087
854,229635.74166079867
856,202883.51438950063
858,177548.2583061767
860,153963.78261275878
862,132580.8515415665
864,113288.53811543316
866,96239.40874515912
868,81413.00428997858
870,68826.20859127876
872,58133.754868965356
874,49160.33286656182
876,41666.7751322839
878,35497.06635140222
880,30295.018445045593
882,25695.68578759554
884,21591.37521759164
886,17852.922836174053
888,14389.809163301048
890,11160.697668091325
892,8122.388938503005
894,5540.658797514908
896,3560.8201047046186
898,2067.8082667675035
900,1036.1379326991748
902,389.7262820249188
904,91.05201843704549
906,33.85408597934234
908,10.175341117526877
910,0.4798427012002451
912,-3.482973111878331
914,2.393407046365594
916,-5.54246237681494
918,-0.29287613119402345
920,-2.3379566926154904
922,4.289920058427215
924,0.9442159283387628
926,-2.7336637591896857
928,1.0006701908683229
930,-1.3057717257606596
932,1.5404292547943992
934,4.001179039549514
936,-1.414773894536123
938,3.248233771030033
940,0.4896997775772239
942,3.269850699677664
944,0.8757233738836303
946,1.835094323646329
948,-1.5911823412967454
950,0.22756291881490442
952,1.4645588048001232
954,3.043621082643513
956,0.027056986644400358
958,-0.10659459427895207
960,-0.7023202398106899
962,-2.0064684457895754
964,-3.0020412361544704
966,-2.2327748367148637
968,-2.2451702637504916
970,3.087313082970052
972,-1.474238603491238
974,-1.3750943045639343
976,0.09099228775895851
978,-4.359327552662422
980,0.17173412192045567
982,0.5883557203648353
984,-0.6237451035931326
986,0.24693956783995888
988,-1.1733774690472267
990,1.089032408027303
992,0.5823660453244227
994,0.22070109661222787
996,-2.4283186811864717
998,-1.410528741235163
