wave,flux
336,357.53232303916286
338,559.6104047498604
340,750.2219413390966
342,1000.2598103710683
344,1326.2669023142778
346,1716.6445033082484
348,2173.3360435877157
350,2707.719479583626
352,3366.525243653998
354,4240.448373201539
356,5360.2167237753565
358,6579.049873198699
360,7884.393149787274
362,9364.350919009961
364,11046.03065220276
366,12990.525710278955
368,15380.16702867597
370,18522.64619881538
372,22873.653080008135
374,29281.49363579839
376,39095.55901759814
378,53881.32696350048
380,74819.57792152019
382,102258.05026410606
384,135156.32746683623
386,170401.407834628
388,203298.211737685
390,230048.83050428753
392,251388.1387336964
394,271877.4225847253
396,296601.18740916386
398,327557.9126028874
400,363604.641699444
402,402141.0550183448
404,441445.18834294763
406,480858.91241852683
408,521976.75831140066
410,567323.9312143052
412,619683.6422288141
414,681550.9987165898
416,753469.922104849
418,834480.3692370199
420,922077.6837105558
422,1012817.3711473185
424,1104202.5385868927
426,1196581.1646989158
428,1292156.5563676804
430,1394029.8079744624
432,1505133.5349968674
434,1625482.7030193238
436,1755250.46565158
438,1894788.2146951423
440,2046347.5194181637
442,2212812.7439512163
444,2397312.3193132128
446,2601198.2468599877
448,2823284.3052612348
450,3061212.7038551713
452,3311806.8836276014
454,3573111.05036365
456,3843998.3381540966
458,4122586.7529842993
460,4407823.656488186
462,4698064.4479136
464,4985246.127361004
466,5255922.416330651
468,5497107.064702957
470,5697980.886851055
472,5847331.790779359
474,5945343.635430979
476,6002776.777259853
478,6031161.238352599
480,6040475.974666067
482,6041265.490501124
484,6041427.390285884
486,6041138.976031968
488,6041602.512049612
490,6041322.753309418
492,6041350.031335322
494,6040991.018661546
496,6041264.214425776
498,6041776.048692539
500,6041564.573518137
502,6041000.855833488
504,6041165.110652499
506,6041229.280075058
508,6041380.710670281
510,6041564.566082497
512,6041346.837052905
514,6041751.2692828365
516,6041422.639004637
518,6041351.7225890225
520,6041537.781638757
522,6041105.717518058
524,6041746.564943152
526,6041366.355279752
528,6041503.56976875
530,6041386.680161505
532,6041661.044882823
534,6041673.039967571
536,6041774.390690529
538,6041256.115097236
540,6041237.965240058
542,6041543.32991406
544,6041343.955467864
546,6041277.323302288
548,6041463.846974439
550,6041453.961376668
552,6041298.421426246
554,6041361.535599221
556,6041018.522468941
558,6041240.847991609
560,6041347.612482566
562,6041018.684662078
564,6041528.175590614
566,6041650.69651449
568,6041215.177981996
570,6041273.024032056
572,6041352.749973707
574,6041463.769288956
576,6041519.293553261
578,6041323.273212565
580,6041165.402690615
582,6041381.042251852
584,6041666.206179926
586,6041616.661523536
588,6041641.905080765
590,6041783.724024268
592,6041399.132047581
594,6041396.035083758
596,6041581.629019176
598,6040887.8995573055
600,6041509.704472748
602,6041468.624613766
604,6040965.254415029
606,6041028.073229312
608,6041234.414722051
610,6041296.785141699
612,6041465.617895654
614,6041556.399536764
616,6041230.4766161665
618,6041071.838938067
620,6042151.990306057
622,6043480.685016452
624,6042863.505593728
626,6040557.417770378
628,6039990.77046317
630,6042240.04783239
632,6043575.246450287
634,6042265.3236899795
636,6040631.934984854
638,6042109.409432866
640,6043345.705231104
642,6043011.824100134
644,6042265.07435894
646,6041619.078125649
648,6041666.897079166
650,6042452.695971372
652,6041929.548414208
654,6040228.271953886
656,6039436.538477139
658,6040035.820034091
660,6041087.104566448
662,6040863.941392087
664,6040967.944200304
666,6042695.758194822
668,6043250.690836272
670,6041268.780864626
672,6041282.439503601
674,6041166.566310057
676,6041536.400181933
678,6041346.26256972
680,6041150.29115618
682,6041410.314844112
684,6041560.064691245
686,6041447.918786254
688,6040955.818939698
690,6041315.875338953
692,6041350.307975556
694,6041850.281893436
696,6041497.367671758
698,6041199.302168769
700,6041453.64627868
702,6041828.693192877
704,6040860.42770877
706,6041675.622792104
708,6041571.681644926
710,6041346.454989626
712,6041546.234560798
714,6041858.824615336
716,6041142.5820534965
718,6041286.403162461
720,6041703.1207177285
722,6041807.585318082
724,6041329.8607438
726,6041296.890614847
728,6041527.288726995
730,6041723.792105585
732,6041192.330811199
734,6041150.1016538385
736,6041704.398114255
738,6041255.137810724
740,6041344.973276121
742,6041402.044472554
744,6041509.896928869
746,6041611.23472158
748,6041281.529689905
750,6041392.455248062
752,6040981.1977447625
754,6041295.389267499
756,6041239.4416478425
758,6041271.659960353
760,6041533.037164191
762,6033170.558480699
764,5997309.196911797
766,5919816.184365741
768,5789128.623488824
770,5591227.92157777
772,5331562.926099856
774,5030824.995786329
776,4699258.250554136
778,4346757.545140255
780,3987299.429810042
782,3631624.3336451664
784,3286378.269654552
786,2964560.482130975
788,2677357.907088312
790,2431812.978824052
792,2227005.630354121
794,2056991.6675400746
796,1912122.286436368
798,1783069.2196949078
800,1663500.214270693
802,1548744.6415391257
804,1440089.3704584274
806,1338355.7413583586
808,1246002.4351940232
810,1164641.9993123675
812,1094313.8934356393
814,1033315.1507154639
816,979276.3012057306
818,928884.3489745458
820,880151.1850921786
822,831067.2044299131
824,781134.7456778135
826,731197.4373941015
828,682133.9307999852
830,635157.065687494
832,590767.9318637582
834,549817.9262336656
836,511926.9827578021
838,476508.58827418834
840,442988.8091633684
842,410512.7161371145
844,378885.83903410326
846,347759.8550145639
848,317145.038704723
850,286997.5341464601
852,257814.11993689087
854,229635.74166079867
856,202883.51438950063
858,177548.2583061767
860,153963.78261275878
862,132580.8515415665
864,113288.53811543316
866,96239.40874515912
868,81413.00428997858
870,68826.20859127876
872,58133.754868965356
874,49160.33286656182
876,41666.7751322839
878,35497.06635140222
880,30295.018445045593
882,25695.68578759554
884,21591.37521759164
886,17852.922836174053
888,14389.809163301048
890,11160.697668091325
892,8122.388938503005
894,5540.658797514908
896,3560.8201047046186
898,2067.8082667675035
900,1036.1379326991748
902,389.7262820249188
904,91.05201843704549
906,33.85408597934234
908,10.175341117526877
910,0.4798427012002451
912,-3.482973111878331
914,2.393407046365594
916,-5.54246237681494
918,-0.29287613119402345
920,-2.3379566926154904
922,4.289920058427215
924,0.9442159283387628
926,-2.7336637591896857
928,1.0006701908683229
930,-1.3057717257606596
932,1.5404292547943992
934,4.001179039549514
936,-1.414773894536123
938,3.248233771030033
940,0.4896997775772239
942,3.269850699677664
944,0.8757233738836303
946,1.835094323646329
948,-1.5911823412967454
950,0.22756291881490442
952,1.4645588048001232
954,3.043621082643513
956,0.027056986644400358
958,-0.10659459427895207
960,-0.7023202398106899
962,-2.0064684457895754
964,-3.0020412361544704
966,-2.2327748367148637
968,-2.2451702637504916
970,3.087313082970052
972,-1.474238603491238
974,-1.3750943045639343
976,0.09099228775895851
978,-4.359327552662422
980,0.17173412192045567
982,0.5883557203648353
984,-0.6237451035931326
986,0.24693956783995888
988,-1.1733774690472267
990,1.089032408027303
992,0.5823660453244227
994,0.22070109661222787
996,-2.4283186811864717
998,-1.410528741235163
