wave,flux
336,2.1877444504678896
338,2.0756602402698774
340,24.818767165747452
342,149.6768212309512
344,562.8262810608605
346,1391.9456906996393
348,2578.423737775817
350,4328.018839333912
352,7147.279057329042
354,11049.141289876201
356,15588.53031979347
358,20444.613302290905
360,25764.762394728707
362,32076.04728309304
364,39967.27091626173
366,49642.682070990406
368,61061.40350061411
370,74176.84317503168
372,88998.96571352509
374,105207.46230694863
376,122481.267364652
378,140616.90270975098
380,159756.62753208703
382,180233.5654733929
384,202438.8807145701
386,226945.5063592921
388,254626.59176155174
390,288264.3103513998
392,333556.9861135839
394,399137.14885850286
396,495089.24517320044
398,630302.0287245773
400,808340.5000950893
402,1026804.8282623106
404,1281126.5795945206
406,1573110.2453935847
408,1918345.9581524408
410,2339931.1734307613
412,2849453.493469473
414,3431274.1645774827
416,4041160.764902046
418,4620995.830399777
420,5121447.630722788
422,5509335.67765243
424,5775933.248471966
426,5933341.239907648
428,6008072.082561736
430,6036203.925850403
432,6041626.747003394
434,6040960.916469969
436,6041381.528373659
438,6041648.123745917
440,6041060.636333804
442,6041315.624338215
444,6041478.162971889
446,6041473.441424619
448,6041732.8662266135
450,6041477.803785643
452,6041487.654848853
454,6041419.576546096
456,6041516.729815706
458,6041647.635908265
460,6041511.911285694
462,6041423.45477021
464,6041400.305676677
466,6041425.288675029
468,6041447.239347835
470,6041507.749317329
472,6041451.073495802
474,6041591.107859943
476,6041129.315545142
478,6041571.678484656
480,6041520.314461609
482,6041424.246376494
484,6041208.7477023015
486,6041380.724350719
488,6041329.70433348
490,6041016.73922205
492,6041608.789035336
494,6041360.07482362
496,6041272.217622724
498,6041197.316806092
500,6041761.74100352
502,6041374.000759665
504,6041187.060390051
506,6041285.895218881
508,6041673.116770806
510,6041546.974016487
512,6041740.727929477
514,6041405.050082252
516,6041093.54462032
518,6041680.958164625
520,6041236.928576869
522,6041841.382308795
524,6041772.991368727
526,6041276.593467926
528,6040931.449728486
530,6041419.744829049
532,6041468.239186538
534,6041641.535358695
536,6040923.252512142
538,6041453.69011193
540,6041540.420064428
542,6041531.993512464
544,6041410.376780786
546,6041434.098014298
548,6041334.649015987
550,6040775.973586388
552,6041615.996941118
554,6042127.268221539
556,6041689.292984152
558,6041333.019020913
560,6041430.311038728
562,6041235.722605448
564,6042175.8128096415
566,6041803.555123061
568,6041223.923340571
570,6041409.791163429
572,6041421.352969769
574,6041428.982342039
576,6041548.480879334
578,6041781.5770618245
580,6041676.245802952
582,6041368.166659108
584,6041588.532833177
586,6041999.6254673535
588,6041534.5002524825
590,6041396.757413719
592,6041255.343435465
594,6041171.3990348
596,6041394.945838068
598,6041498.1306394115
600,6041442.969644331
602,6041356.437611343
604,6041303.022507519
606,6041461.117278095
608,6041805.104842901
610,6041582.491069296
612,6041554.436007489
614,6041684.567644829
616,6041475.771108588
618,6041706.992560287
620,6041308.513126554
622,6040735.061328666
624,6041333.907824848
626,6041671.573974088
628,6041568.104301376
630,6041358.173871523
632,6040963.409399184
634,6040452.827256362
636,6039948.109981401
638,6039570.9455579575
640,6039443.021969697
642,6039686.02720028
644,6040421.649233363
646,6041693.207393197
648,6041643.746019041
650,6041401.219624812
652,6041705.777110776
654,6041397.689689033
656,6041151.21679116
658,6041511.431214407
660,6041551.262288403
662,6041377.486709215
664,6041484.487439378
666,6041443.750089349
668,6041107.991048771
670,6041563.760999665
672,6041267.2062764475
674,6041163.483843256
676,6041536.128915831
678,6041346.24345349
680,6041150.289956291
682,6041410.314774397
684,6041560.064687422
686,6041447.9187860545
688,6040955.81893969
690,6041315.875338955
692,6041350.307975556
694,6041850.281893436
696,6041497.367671758
698,6041199.302168769
700,6041453.64627868
702,6041828.693192877
704,6040860.42770877
706,6041675.622792104
708,6041571.681644926
710,6041346.454989626
712,6041546.234560798
714,6041858.824615336
716,6041142.5820534965
718,6041286.403162461
720,6041703.1207177285
722,6041807.585318082
724,6041329.8607438
726,6041296.890614847
728,6041527.288726995
730,6041723.792105585
732,6041192.330811199
734,6041150.1016538385
736,6041704.398114255
738,6041255.137810724
740,6041344.973276121
742,6041402.044472554
744,6041509.896928869
746,6041611.23472158
748,6041281.529689905
750,6041392.455248062
752,6040981.1977447625
754,6041295.389267499
756,6041239.4416478425
758,6041271.659960353
760,6041533.037164191
762,6033170.558480699
764,5997309.196911797
766,5919816.184365741
768,5789128.623488824
770,5591227.92157777
772,5331562.926099856
774,5030824.995786329
776,4699258.250554136
778,4346757.545140255
780,3987299.429810042
782,3631624.3336451664
784,3286378.269654552
786,2964560.482130975
788,2677357.907088312
790,2431812.978824052
792,2227005.630354121
794,2056991.6675400746
796,1912122.286436368
798,1783069.2196949078
800,1663500.214270693
802,1548744.6415391257
804,1440089.3704584274
806,1338355.7413583586
808,1246002.4351940232
810,1164641.9993123675
812,1094313.8934356393
814,1033315.1507154639
816,979276.3012057306
818,928884.3489745458
820,880151.1850921786
822,831067.2044299131
824,781134.7456778135
826,731197.4373941015
828,682133.9307999852
830,635157.065687494
832,590767.9318637582
834,549817.9262336656
836,511926.9827578021
838,476508.58827418834
840,442988.8091633684
842,410512.7161371145
844,378885.83903410326
846,347759.8550145639
848,317145.038704723
850,286997.5341464601
852,257814.11993689087
854,229635.74166079867
856,202883.51438950063
858,177548.2583061767
860,153963.78261275878
862,132580.8515415665
864,113288.53811543316
866,96239.40874515912
868,81413.00428997858
870,68826.20859127876
872,58133.754868965356
874,49160.33286656182
876,41666.7751322839
878,35497.06635140222
880,30295.018445045593
882,25695.68578759554
884,21591.37521759164
886,17852.922836174053
888,14389.809163301048
890,11160.697668091325
892,8122.388938503005
894,5540.658797514908
896,3560.8201047046186
898,2067.8082667675035
900,1036.1379326991748
902,389.7262820249188
904,91.05201843704549
906,33.85408597934234
908,10.175341117526877
910,0.4798427012002451
912,-3.482973111878331
914,2.393407046365594
916,-5.54246237681494
918,-0.29287613119402345
920,-2.3379566926154904
922,4.289920058427215
924,0.9442159283387628
926,-2.7336637591896857
928,1.0006701908683229
930,-1.3057717257606596
932,1.5404292547943992
934,4.001179039549514
936,-1.414773894536123
938,3.248233771030033
940,0.4896997775772239
942,3.269850699677664
944,0.8757233738836303
946,1.835094323646329
948,-1.5911823412967454
950,0.22756291881490442
952,1.4645588048001232
954,3.043621082643513
956,0.027056986644400358
958,-0.10659459427895207
960,-0.7023202398106899
962,-2.0064684457895754
964,-3.0020412361544704
966,-2.2327748367148637
968,-2.2451702637504916
970,3.087313082970052
972,-1.474238603491238
974,-1.3750943045639343
976,0.09099228775895851
978,-4.359327552662422
980,0.17173412192045567
982,0.5883557203648353
984,-0.6237451035931326
986,0.24693956783995888
988,-1.1733774690472267
990,1.089032408027303
992,0.5823660453244227
994,0.22070109661222787
996,-2.4283186811864717
998,-1.410528741235163
