wave,flux
336,0.6169007626950468
338,-2.997606998074218
340,-3.688157409624954
342,2.789821796137879
344,165.29276076286214
346,1148.0592303419526
348,2915.9551862330454
350,4344.0863929481175
352,5187.665392009473
354,5869.0683800029265
356,6562.20734778385
358,7651.013122951493
360,9816.27973684698
362,12704.586018354257
364,14996.933250862718
366,16879.150861716254
368,19350.177415696864
370,22433.74232653128
372,25553.378267277603
374,28319.598892050883
376,30710.65810423158
378,32708.7720275916
380,34264.55483703416
382,35901.45952988711
384,40264.31315823606
386,51033.05263206816
388,70366.2117254842
390,105224.06782490644
392,180126.95679731405
394,299480.74581057124
396,453529.69676121656
398,617608.1484409731
400,814408.9867245391
402,1066403.7492045716
404,1372255.262948739
406,1675547.971139988
408,1903106.5014006356
410,2007469.450428255
412,1988791.0035849523
414,1890645.0474026422
416,1771414.823110158
418,1684093.267748634
420,1667126.6846948091
422,1745616.564507788
424,1932257.8644324185
426,2219095.0544659845
428,2562073.948184154
430,2880540.8008471867
432,3079138.106518177
434,3090420.4910707986
436,2911938.8717083996
438,2607125.635512893
440,2271727.2629752113
442,1986430.8009325657
444,1792504.352032763
446,1692011.1967221377
448,1666337.4002986122
450,1697451.3323802436
452,1780658.8185703882
454,1933906.3420594914
456,2184170.0091567384
458,2548984.221540082
460,3031660.359451627
462,3611225.1162980697
464,4216288.994475538
466,4781553.573490893
468,5259194.855418563
470,5613064.7559038345
472,5834859.329933531
474,5960392.943280731
476,6019840.771935094
478,6039523.203410055
480,6041454.742977964
482,6041298.4132892825
484,6041263.565249614
486,6041766.4345175885
488,6040842.811953223
490,6042126.952561385
492,6041595.291879142
494,6041315.081170124
496,6041592.263093728
498,6041420.079197495
500,6040903.8582734
502,6041776.191229094
504,6041246.289496788
506,6041654.349527708
508,6041184.34640833
510,6041638.503979115
512,6041528.717289064
514,6041237.096867971
516,6041430.81472478
518,6041279.093553621
520,6041626.677630524
522,6041277.958333383
524,6041440.641653765
526,6039504.115929163
528,6024999.47950397
530,5991062.011577735
532,5932779.585884601
534,5842851.043082214
536,5717218.274343335
538,5550266.57424259
540,5337787.740451983
542,5090840.272882223
544,4823185.085094343
546,4547786.986864394
548,4277423.845830296
550,4029291.3683974575
552,3822192.1826381073
554,3676390.610604135
556,3607754.2764729434
558,3620685.1567424554
560,3710916.231474487
562,3871012.6138909915
564,4088769.0186998374
566,4348469.738169757
568,4630618.329808812
570,4914615.518282377
572,5181584.13151979
574,5413221.540053377
576,5604348.999704576
578,5755686.294180422
580,5869221.758643236
582,5948464.377575702
584,5998795.325775933
586,6026670.256498808
588,6038451.224308624
590,6041034.265632054
592,6040993.5232976535
594,6041512.409201954
596,6041802.109094847
598,6041015.945627335
600,6041650.117378283
602,6041855.546255804
604,6041392.23520461
606,6041185.234138864
608,6041304.064518833
610,6041487.205809059
612,6041555.374789737
614,6041375.130927714
616,6041080.847439149
618,6041308.050417131
620,6042354.397558312
622,6043496.352798075
624,6043172.309323852
626,6040441.5031109145
628,6039735.1107102875
630,6042163.1239439845
632,6042177.73715829
634,6041596.18524837
636,6042048.876412022
638,6042452.075434434
640,6041023.037244726
642,6040594.5695968075
644,6044108.1023611305
646,6044587.032402809
648,6041972.272670945
650,6040675.674193578
652,6038880.301671475
654,6041418.8002507305
656,6041025.172503746
658,6041503.311839644
660,6041551.028849676
662,6041377.491575797
664,6041484.488383077
666,6041443.750154983
668,6041107.991051814
670,6041563.760999741
672,6041267.206276446
674,6041163.483843256
676,6041536.128915831
678,6041346.24345349
680,6041150.289956291
682,6041410.314774397
684,6041560.064687422
686,6041447.9187860545
688,6040955.81893969
690,6041315.875338955
692,6041350.307975556
694,6041850.281893436
696,6041497.367671758
698,6041199.302168769
700,6041453.64627868
702,6041828.693192877
704,6040860.42770877
706,6041675.622792104
708,6041571.681644926
710,6041346.454989626
712,6041546.234560798
714,6041858.824615336
716,6041142.5820534965
718,6041286.403162461
720,6041703.1207177285
722,6041807.585318082
724,6041329.8607438
726,6041296.890614847
728,6041527.288726995
730,6041723.792105585
732,6041192.330811199
734,6041150.1016538385
736,6041704.398114255
738,6041255.137810724
740,6041344.973276121
742,6041402.044472554
744,6041509.896928869
746,6041611.23472158
748,6041281.529689905
750,6041392.455248062
752,6040981.1977447625
754,6041295.389267499
756,6041239.4416478425
758,6041271.659960353
760,6041533.037164191
762,6033170.558480699
764,5997309.196911797
766,5919816.184365741
768,5789128.623488824
770,5591227.92157777
772,5331562.926099856
774,5030824.995786329
776,4699258.250554136
778,4346757.545140255
780,3987299.429810042
782,3631624.3336451664
784,3286378.269654552
786,2964560.482130975
788,2677357.907088312
790,2431812.978824052
792,2227005.630354121
794,2056991.6675400746
796,1912122.286436368
798,1783069.2196949078
800,1663500.214270693
802,1548744.6415391257
804,1440089.3704584274
806,1338355.7413583586
808,1246002.4351940232
810,1164641.9993123675
812,1094313.8934356393
814,1033315.1507154639
816,979276.3012057306
818,928884.3489745458
820,880151.1850921786
822,831067.2044299131
824,781134.7456778135
826,731197.4373941015
828,682133.9307999852
830,635157.065687494
832,590767.9318637582
834,549817.9262336656
836,511926.9827578021
838,476508.58827418834
840,442988.8091633684
842,410512.7161371145
844,378885.83903410326
846,347759.8550145639
848,317145.038704723
850,286997.5341464601
852,257814.11993689087
854,229635.74166079867
856,202883.51438950063
858,177548.2583061767
860,153963.78261275878
862,132580.8515415665
864,113288.53811543316
866,96239.40874515912
868,81413.00428997858
870,68826.20859127876
872,58133.754868965356
874,49160.33286656182
876,41666.7751322839
878,35497.06635140222
880,30295.018445045593
882,25695.68578759554
884,21591.37521759164
886,17852.922836174053
888,14389.809163301048
890,11160.697668091325
892,8122.388938503005
894,5540.658797514908
896,3560.8201047046186
898,2067.8082667675035
900,1036.1379326991748
902,389.7262820249188
904,91.05201843704549
906,33.85408597934234
908,10.175341117526877
910,0.4798427012002451
912,-3.482973111878331
914,2.393407046365594
916,-5.54246237681494
918,-0.29287613119402345
920,-2.3379566926154904
922,4.289920058427215
924,0.9442159283387628
926,-2.7336637591896857
928,1.0006701908683229
930,-1.3057717257606596
932,1.5404292547943992
934,4.001179039549514
936,-1.414773894536123
938,3.248233771030033
940,0.4896997775772239
942,3.269850699677664
944,0.8757233738836303
946,1.835094323646329
948,-1.5911823412967454
950,0.22756291881490442
952,1.4645588048001232
954,3.043621082643513
956,0.027056986644400358
958,-0.10659459427895207
960,-0.7023202398106899
962,-2.0064684457895754
964,-3.0020412361544704
966,-2.2327748367148637
968,-2.2451702637504916
970,3.087313082970052
972,-1.474238603491238
974,-1.3750943045639343
976,0.09099228775895851
978,-4.359327552662422
980,0.17173412192045567
982,0.5883557203648353
984,-0.6237451035931326
986,0.24693956783995888
988,-1.1733774690472267
990,1.089032408027303
992,0.5823660453244227
994,0.22070109661222787
996,-2.4283186811864717
998,-1.410528741235163
