wave,flux
336,5518.603636859578
338,8385.52441661531
340,10646.517190322293
342,12830.451344970283
344,15293.68810191005
346,17870.19817336135
348,20706.883788866082
350,24407.877431185712
352,29266.289163393452
354,35595.099542835414
356,43217.25798391681
358,50986.139333262756
360,58018.857889168394
362,64225.97889779939
364,69922.01325377678
366,76116.46868555785
368,84945.3247253646
370,100261.4490610834
372,128797.49264313793
374,183812.8972853671
376,285841.087374891
378,457344.5472369269
380,715099.8074116396
382,1060524.2991276267
384,1469823.5353756642
386,1882223.5822726446
388,2209017.96074342
390,2370550.0411109803
392,2350830.3602384096
394,2205761.8446638584
396,2023996.6011991922
398,1871445.1295117992
400,1766218.2411475263
402,1695373.9700480965
404,1647255.523264031
406,1627480.916512488
408,1652081.8583362205
410,1725547.1268464644
412,1832572.2045721777
414,1948999.1533148235
416,2061011.3835254465
418,2167121.847175427
420,2271193.9019554225
422,2369021.6271622274
424,2447834.2083879104
426,2499220.037509984
428,2526189.0690072826
430,2543752.4513631864
432,2570722.2149851555
434,2622582.929821441
436,2706906.7557231192
438,2825829.961745216
440,2976497.4222919596
442,3155690.0229013157
444,3360120.4565946963
446,3588727.0221850397
448,3843115.848172104
450,4127059.4480358106
452,4443282.02378491
454,4781265.651610951
456,5116977.960991998
458,5424144.7955124
460,5676398.6467771605
462,5853226.051212016
464,5961286.615156528
466,6017112.4710925585
468,6038295.437891566
470,6041337.624998938
472,6041320.3473575665
474,6041579.439790844
476,6041665.126905258
478,6041428.469217922
480,6041161.794078333
482,6041243.777394979
484,6041126.48290608
486,6041098.213693738
488,6041564.465409986
490,6041544.223119409
492,6041641.026825584
494,6041363.061828294
496,6041615.609029636
498,6041347.134231143
500,6041123.72413495
502,6041700.879998602
504,6041055.486068308
506,6041463.9352551205
508,6041417.749116491
510,6041720.021887102
512,6041552.257578971
514,6041306.604089126
516,6041676.275780115
518,6041467.742863336
520,6041431.879635453
522,6041671.230539417
524,6041529.454433052
526,6042100.8049691
528,6041261.776972914
530,6040777.590885583
532,6041432.428910559
534,6041692.280075887
536,6041501.01135923
538,6041442.174136242
540,6041630.85112226
542,6041222.300659794
544,6041219.699382606
546,6041133.907809715
548,6041361.9300038135
550,6041341.583455487
552,6041189.695615176
554,6041015.036828734
556,6041384.367817785
558,6041890.351954557
560,6041611.5068454165
562,6041330.774200129
564,6041605.700947462
566,6041747.51662058
568,6041346.535137179
570,6041325.108813567
572,6041388.544923709
574,6041100.874691119
576,6041162.045907137
578,6041124.094853792
580,6041090.85344212
582,6041244.7632197505
584,6041474.324758858
586,6041789.192960431
588,6041492.287915945
590,6041517.708215027
592,6041667.443775203
594,6041480.987112634
596,6041260.651269031
598,6041318.006219371
600,6041056.861827862
602,6041370.907494436
604,6041651.439887134
606,6041421.781445253
608,6041338.272627064
610,6041179.947204015
612,6041109.979770618
614,6041132.475659338
616,6041014.130795879
618,6040792.507524107
620,6041049.554127145
622,6042196.947973511
624,6043389.833557409
626,6042100.904220338
628,6040651.858417672
630,6041073.412596416
632,6041663.835928749
634,6041624.7732291985
636,6041424.2822984215
638,6041840.320005682
640,6041839.4960970115
642,6041306.701236928
644,6040948.104756013
646,6040855.141739232
648,6040524.543666735
650,6039815.125750296
652,6040691.865470039
654,6042047.494331072
656,6040869.486222963
658,6039327.087932136
660,6039691.40806592
662,6042073.810360206
664,6043001.690566407
666,6041209.764597339
668,6041173.12913277
670,6041385.020120751
672,6041277.308352313
674,6041165.528013751
676,6041536.308808818
678,6041346.256130621
680,6041150.290752009
682,6041410.31482063
684,6041560.064689956
686,6041447.918786188
688,6040955.818939695
690,6041315.875338953
692,6041350.307975556
694,6041850.281893436
696,6041497.367671758
698,6041199.302168769
700,6041453.64627868
702,6041828.693192877
704,6040860.42770877
706,6041675.622792104
708,6041571.681644926
710,6041346.454989626
712,6041546.234560798
714,6041858.824615336
716,6041142.5820534965
718,6041286.403162461
720,6041703.1207177285
722,6041807.585318082
724,6041329.8607438
726,6041296.890614847
728,6041527.288726995
730,6041723.792105585
732,6041192.330811199
734,6041150.1016538385
736,6041704.398114255
738,6041255.137810724
740,6041344.973276121
742,6041402.044472554
744,6041509.896928869
746,6041611.23472158
748,6041281.529689905
750,6041392.455248062
752,6040981.1977447625
754,6041295.389267499
756,6041239.4416478425
758,6041271.659960353
760,6041533.037164191
762,6033170.558480699
764,5997309.196911797
766,5919816.184365741
768,5789128.623488824
770,5591227.92157777
772,5331562.926099856
774,5030824.995786329
776,4699258.250554136
778,4346757.545140255
780,3987299.429810042
782,3631624.3336451664
784,3286378.269654552
786,2964560.482130975
788,2677357.907088312
790,2431812.978824052
792,2227005.630354121
794,2056991.6675400746
796,1912122.286436368
798,1783069.2196949078
800,1663500.214270693
802,1548744.6415391257
804,1440089.3704584274
806,1338355.7413583586
808,1246002.4351940232
810,1164641.9993123675
812,1094313.8934356393
814,1033315.1507154639
816,979276.3012057306
818,928884.3489745458
820,880151.1850921786
822,831067.2044299131
824,781134.7456778135
826,731197.4373941015
828,682133.9307999852
830,635157.065687494
832,590767.9318637582
834,549817.9262336656
836,511926.9827578021
838,476508.58827418834
840,442988.8091633684
842,410512.7161371145
844,378885.83903410326
846,347759.8550145639
848,317145.038704723
850,286997.5341464601
852,257814.11993689087
854,229635.74166079867
856,202883.51438950063
858,177548.2583061767
860,153963.78261275878
862,132580.8515415665
864,113288.53811543316
866,96239.40874515912
868,81413.00428997858
870,68826.20859127876
872,58133.754868965356
874,49160.33286656182
876,41666.7751322839
878,35497.06635140222
880,30295.018445045593
882,25695.68578759554
884,21591.37521759164
886,17852.922836174053
888,14389.809163301048
890,11160.697668091325
892,8122.388938503005
894,5540.658797514908
896,3560.8201047046186
898,2067.8082667675035
900,1036.1379326991748
902,389.7262820249188
904,91.05201843704549
906,33.85408597934234
908,10.175341117526877
910,0.4798427012002451
912,-3.482973111878331
914,2.393407046365594
916,-5.54246237681494
918,-0.29287613119402345
920,-2.3379566926154904
922,4.289920058427215
924,0.9442159283387628
926,-2.7336637591896857
928,1.0006701908683229
930,-1.3057717257606596
932,1.5404292547943992
934,4.001179039549514
936,-1.414773894536123
938,3.248233771030033
940,0.4896997775772239
942,3.269850699677664
944,0.8757233738836303
946,1.835094323646329
948,-1.5911823412967454
950,0.22756291881490442
952,1.4645588048001232
954,3.043621082643513
956,0.027056986644400358
958,-0.10659459427895207
960,-0.7023202398106899
962,-2.0064684457895754
964,-3.0020412361544704
966,-2.2327748367148637
968,-2.2451702637504916
970,3.087313082970052
972,-1.474238603491238
974,-1.3750943045639343
976,0.09099228775895851
978,-4.359327552662422
980,0.17173412192045567
982,0.5883557203648353
984,-0.6237451035931326
986,0.24693956783995888
988,-1.1733774690472267
990,1.089032408027303
992,0.5823660453244227
994,0.22070109661222787
996,-2.4283186811864717
998,-1.410528741235163
