wave,flux
336,-2.298084604197938
338,-2.7650213465280893
340,-0.2284117503487534
342,-0.3790730131259703
344,5.427290355781865
346,-2.1679870698987855
348,-1.4824891284410446
350,-2.1327720915406303
352,0.5586812113468678
354,0.5565776231609272
356,-2.858249592978811
358,34.322172484673104
360,556.1492283513521
362,2324.141974368138
364,5591.050822989589
366,9931.404133137972
368,14968.633359507501
370,20649.39492851918
372,27002.078340093227
374,34066.3748569903
376,41983.02124878524
378,50849.27677455889
380,60828.42964994881
382,72093.00835529134
384,85242.38884183738
386,100502.9869153599
388,117549.78462754757
390,136082.9599709596
392,156243.02847362455
394,178323.62305755864
396,201964.9209548232
398,226326.6455532454
400,250873.46128616153
402,275675.3901634016
404,300987.9536973951
406,327606.8236520217
408,356583.55718209874
410,389407.3303824137
412,426983.1707386932
414,469590.89492122456
416,518526.8332372193
418,577824.7850333016
420,657631.7442000742
422,777287.8262495225
424,966013.1940387507
426,1258389.5572762047
428,1685195.6497737716
430,2257772.5231365873
432,2959364.087988127
434,3731796.7873184127
436,4479781.272135253
438,5116261.941213371
440,5578904.2391058635
442,5853247.875949527
444,5987719.767113183
446,6035542.62988228
448,6041318.51150013
450,6041425.1406865
452,6041356.303578145
454,6041280.514935715
456,6041102.712947285
458,6041522.364715053
460,6041258.351280189
462,6041351.422120841
464,6041975.371119389
466,6041079.923724728
468,6041513.616806216
470,6041767.051712143
472,6041079.291082356
474,6041321.762913196
476,6041197.184832404
478,6041445.931528488
480,6041170.11161714
482,6041329.95373046
484,6041453.751318545
486,6041300.25753687
488,6041499.405045817
490,6041416.817112196
492,6041445.075808396
494,6041483.936837642
496,6041531.762469286
498,6041448.830805837
500,6041499.54166676
502,6041595.645342167
504,6041889.230000951
506,6041489.263475638
508,6041497.862643706
510,6041294.928286548
512,6041603.6801795745
514,6041269.313568281
516,6041550.633661488
518,6041478.848301232
520,6041818.2575788405
522,6041195.797974943
524,6041067.646133777
526,6041436.782810185
528,6041584.031591212
530,6041024.359605696
532,6041758.18242389
534,6040911.232448612
536,6041423.209483019
538,6041564.557435152
540,6041233.23213816
542,6041283.56137772
544,6041388.121313953
546,6041571.799938165
548,6041273.718203403
550,6040909.274555046
552,6041291.311437225
554,6041839.419565722
556,6041771.113891277
558,6041473.419874679
560,6041441.584909681
562,6041617.568573158
564,6041469.7876205575
566,6041335.788940735
568,6041346.533730564
570,6041372.153458673
572,6041284.486009397
574,6041341.122972444
576,6041691.614256229
578,6041523.173143314
580,6041304.17725211
582,6041662.062912978
584,6041934.470606934
586,6041621.750767018
588,6041480.4554449655
590,6041858.86465371
592,6041477.637622071
594,6041292.149318732
596,6041617.322646726
598,6041122.173947318
600,6041298.637044029
602,6041411.621375828
604,6041268.02981647
606,6041281.396270922
608,6041474.308456678
610,6041489.038454803
612,6041565.907315713
614,6041541.294276293
616,6041146.928805662
618,6041041.704331356
620,6041604.807217483
622,6042057.617541421
624,6041608.419855114
626,6041536.12457073
628,6041387.134681811
630,6040947.323290391
632,6041270.400297223
634,6041272.010459072
636,6041227.006469851
638,6042024.917095628
640,6040607.856060149
642,6039799.517729474
644,6042663.433407243
646,6041428.729834886
648,6041778.844656013
650,6041541.797675373
652,6041756.32860612
654,6041397.710527436
656,6041151.107778228
658,6041511.424192139
660,6041551.262086507
662,6041377.486713424
664,6041484.487440195
666,6041443.750089406
668,6041107.991048774
670,6041563.760999665
672,6041267.2062764475
674,6041163.483843256
676,6041536.128915831
678,6041346.24345349
680,6041150.289956291
682,6041410.314774397
684,6041560.064687422
686,6041447.9187860545
688,6040955.81893969
690,6041315.875338955
692,6041350.307975556
694,6041850.281893436
696,6041497.367671758
698,6041199.302168769
700,6041453.64627868
702,6041828.693192877
704,6040860.42770877
706,6041675.622792104
708,6041571.681644926
710,6041346.454989626
712,6041546.234560798
714,6041858.824615336
716,6041142.5820534965
718,6041286.403162461
720,6041703.1207177285
722,6041807.585318082
724,6041329.8607438
726,6041296.890614847
728,6041527.288726995
730,6041723.792105585
732,6041192.330811199
734,6041150.1016538385
736,6041704.398114255
738,6041255.137810724
740,6041344.973276121
742,6041402.044472554
744,6041509.896928869
746,6041611.23472158
748,6041281.529689905
750,6041392.455248062
752,6040981.1977447625
754,6041295.389267499
756,6041239.4416478425
758,6041271.659960353
760,6041533.037164191
762,6033170.558480699
764,5997309.196911797
766,5919816.184365741
768,5789128.623488824
770,5591227.92157777
772,5331562.926099856
774,5030824.995786329
776,4699258.250554136
778,4346757.545140255
780,3987299.429810042
782,3631624.3336451664
784,3286378.269654552
786,2964560.482130975
788,2677357.907088312
790,2431812.978824052
792,2227005.630354121
794,2056991.6675400746
796,1912122.286436368
798,1783069.2196949078
800,1663500.214270693
802,1548744.6415391257
804,1440089.3704584274
806,1338355.7413583586
808,1246002.4351940232
810,1164641.9993123675
812,1094313.8934356393
814,1033315.1507154639
816,979276.3012057306
818,928884.3489745458
820,880151.1850921786
822,831067.2044299131
824,781134.7456778135
826,731197.4373941015
828,682133.9307999852
830,635157.065687494
832,590767.9318637582
834,549817.9262336656
836,511926.9827578021
838,476508.58827418834
840,442988.8091633684
842,410512.7161371145
844,378885.83903410326
846,347759.8550145639
848,317145.038704723
850,286997.5341464601
852,257814.11993689087
854,229635.74166079867
856,202883.51438950063
858,177548.2583061767
860,153963.78261275878
862,132580.8515415665
864,113288.53811543316
866,96239.40874515912
868,81413.00428997858
870,68826.20859127876
872,58133.754868965356
874,49160.33286656182
876,41666.7751322839
878,35497.06635140222
880,30295.018445045593
882,25695.68578759554
884,21591.37521759164
886,17852.922836174053
888,14389.809163301048
890,11160.697668091325
892,8122.388938503005
894,5540.658797514908
896,3560.8201047046186
898,2067.8082667675035
900,1036.1379326991748
902,389.7262820249188
904,91.05201843704549
906,33.85408597934234
908,10.175341117526877
910,0.4798427012002451
912,-3.482973111878331
914,2.393407046365594
916,-5.54246237681494
918,-0.29287613119402345
920,-2.3379566926154904
922,4.289920058427215
924,0.9442159283387628
926,-2.7336637591896857
928,1.0006701908683229
930,-1.3057717257606596
932,1.5404292547943992
934,4.001179039549514
936,-1.414773894536123
938,3.248233771030033
940,0.4896997775772239
942,3.269850699677664
944,0.8757233738836303
946,1.835094323646329
948,-1.5911823412967454
950,0.22756291881490442
952,1.4645588048001232
954,3.043621082643513
956,0.027056986644400358
958,-0.10659459427895207
960,-0.7023202398106899
962,-2.0064684457895754
964,-3.0020412361544704
966,-2.2327748367148637
968,-2.2451702637504916
970,3.087313082970052
972,-1.474238603491238
974,-1.3750943045639343
976,0.09099228775895851
978,-4.359327552662422
980,0.17173412192045567
982,0.5883557203648353
984,-0.6237451035931326
986,0.24693956783995888
988,-1.1733774690472267
990,1.089032408027303
992,0.5823660453244227
994,0.22070109661222787
996,-2.4283186811864717
998,-1.410528741235163
