wave,flux
336,3493.7127036755346
338,7537.186343056301
340,12512.631190333143
342,18278.342088190508
344,25665.768285785656
346,35470.820918082405
348,47804.723743105285
350,61762.05895764103
352,78326.82337319458
354,98746.04228347848
356,121983.08484327138
358,148135.27504844047
360,177564.56872205777
362,208112.2643138364
364,239608.55565945836
366,274114.2300133192
368,313851.48843412957
370,360973.8580323934
372,415743.81694622635
374,478861.5119934289
376,559159.6395120277
378,678327.9369351906
380,873505.377695625
382,1191779.0836454001
384,1670478.9241280474
386,2314404.7029761053
388,3085386.5256916266
390,3909627.5690492247
392,4696573.1280745845
394,5337102.830176287
396,5763680.908882537
398,5968314.792832459
400,6034534.927301851
402,6041265.640593684
404,6041418.2250110265
406,6041549.161193422
408,6041208.366443837
410,6041518.16093266
412,6041311.3350262465
414,6041407.535861539
416,6041167.809556166
418,6041684.622898949
420,6041483.927158423
422,6041672.252477262
424,6041435.228602117
426,6041042.918281059
428,6041361.941944327
430,6041568.771364381
432,6041375.339420234
434,6041323.821582807
436,6041262.247122866
438,6041408.7038484495
440,6041340.3216812555
442,6041409.98114552
444,6041342.314579172
446,6041327.366929334
448,6041036.938679372
450,6041264.230267718
452,6041352.553722547
454,6041558.359163011
456,6042119.260655101
458,6041403.025794991
460,6041265.963868297
462,6041051.702893403
464,6041162.23400766
466,6041362.794375287
468,6041601.805745467
470,6041563.237432948
472,6041636.592284032
474,6041581.192221702
476,6041991.6699527465
478,6041289.371860688
480,6041453.335002033
482,6040920.771920528
484,6041513.018607999
486,6041020.388864526
488,6041537.466586256
490,6041110.014649994
492,6041419.8400819255
494,6041567.71685407
496,6041080.990325643
498,6041593.377509966
500,6041064.762751034
502,6041537.4808475105
504,6041044.362654344
506,6041335.189622269
508,6041599.9694888685
510,6041232.879537804
512,6041137.989745377
514,6041597.944829117
516,6041403.704716203
518,6041369.264723542
520,6041547.906772967
522,6041472.232882919
524,6041016.4389583
526,6040988.641781451
528,6041599.347725508
530,6041268.461849465
532,6041401.271126402
534,6041526.396574457
536,6041260.393912565
538,6041375.024226242
540,6041353.132021972
542,6041403.750271323
544,6041770.126783032
546,6041764.232532672
548,6041288.470125219
550,6041432.433237998
552,6041707.266451484
554,6041412.364249689
556,6041421.954299774
558,6041414.814411361
560,6041271.565222942
562,6041730.79128185
564,6041854.166448063
566,6041426.358445278
568,6041150.0268006865
570,6041416.701175224
572,6041445.116909178
574,6040675.011820687
576,6041211.996050221
578,6041573.7419821825
580,6041338.871301945
582,6041295.690913591
584,6041337.805509351
586,6041475.449283761
588,6041553.348104395
590,6041195.171057769
592,6041463.280718769
594,6041638.061625689
596,6041373.98380869
598,6041618.342149801
600,6041239.27246469
602,6041194.245933704
604,6041461.120947416
606,6041573.5355596095
608,6041604.455898452
610,6041438.1921329675
612,6041277.0761747435
614,6041443.536772478
616,6041601.854046352
618,6040691.726156309
620,6040831.469415856
622,6041981.623199005
624,6042177.248600641
626,6042223.407516759
628,6042130.293496846
630,6041553.6548082465
632,6040799.139233544
634,6041396.951187297
636,6042355.211750946
638,6041412.940007536
640,6041005.60539348
642,6040927.610182093
644,6039924.837993454
646,6041573.957928491
648,6044114.449949768
650,6043320.01444652
652,6042058.325364114
654,6041800.855535535
656,6041504.1875195615
658,6041577.26012576
660,6041853.919029699
662,6041371.970996179
664,6041826.149176789
666,6041467.512336658
668,6041109.092079841
670,6041563.788677209
672,6041267.205502212
674,6041163.483686588
676,6041536.128902045
678,6041346.243452517
680,6041150.289956232
682,6041410.314774393
684,6041560.064687422
686,6041447.9187860545
688,6040955.81893969
690,6041315.875338955
692,6041350.307975556
694,6041850.281893436
696,6041497.367671758
698,6041199.302168769
700,6041453.64627868
702,6041828.693192877
704,6040860.42770877
706,6041675.622792104
708,6041571.681644926
710,6041346.454989626
712,6041546.234560798
714,6041858.824615336
716,6041142.5820534965
718,6041286.403162461
720,6041703.1207177285
722,6041807.585318082
724,6041329.8607438
726,6041296.890614847
728,6041527.288726995
730,6041723.792105585
732,6041192.330811199
734,6041150.1016538385
736,6041704.398114255
738,6041255.137810724
740,6041344.973276121
742,6041402.044472554
744,6041509.896928869
746,6041611.23472158
748,6041281.529689905
750,6041392.455248062
752,6040981.1977447625
754,6041295.389267499
756,6041239.4416478425
758,6041271.659960353
760,6041533.037164191
762,6033170.558480699
764,5997309.196911797
766,5919816.184365741
768,5789128.623488824
770,5591227.92157777
772,5331562.926099856
774,5030824.995786329
776,4699258.250554136
778,4346757.545140255
780,3987299.429810042
782,3631624.3336451664
784,3286378.269654552
786,2964560.482130975
788,2677357.907088312
790,2431812.978824052
792,2227005.630354121
794,2056991.6675400746
796,1912122.286436368
798,1783069.2196949078
800,1663500.214270693
802,1548744.6415391257
804,1440089.3704584274
806,1338355.7413583586
808,1246002.4351940232
810,1164641.9993123675
812,1094313.8934356393
814,1033315.1507154639
816,979276.3012057306
818,928884.3489745458
820,880151.1850921786
822,831067.2044299131
824,781134.7456778135
826,731197.4373941015
828,682133.9307999852
830,635157.065687494
832,590767.9318637582
834,549817.9262336656
836,511926.9827578021
838,476508.58827418834
840,442988.8091633684
842,410512.7161371145
844,378885.83903410326
846,347759.8550145639
848,317145.038704723
850,286997.5341464601
852,257814.11993689087
854,229635.74166079867
856,202883.51438950063
858,177548.2583061767
860,153963.78261275878
862,132580.8515415665
864,113288.53811543316
866,96239.40874515912
868,81413.00428997858
870,68826.20859127876
872,58133.754868965356
874,49160.33286656182
876,41666.7751322839
878,35497.06635140222
880,30295.018445045593
882,25695.68578759554
884,21591.37521759164
886,17852.922836174053
888,14389.809163301048
890,11160.697668091325
892,8122.388938503005
894,5540.658797514908
896,3560.8201047046186
898,2067.8082667675035
900,1036.1379326991748
902,389.7262820249188
904,91.05201843704549
906,33.85408597934234
908,10.175341117526877
910,0.4798427012002451
912,-3.482973111878331
914,2.393407046365594
916,-5.54246237681494
918,-0.29287613119402345
920,-2.3379566926154904
922,4.289920058427215
924,0.9442159283387628
926,-2.7336637591896857
928,1.0006701908683229
930,-1.3057717257606596
932,1.5404292547943992
934,4.001179039549514
936,-1.414773894536123
938,3.248233771030033
940,0.4896997775772239
942,3.269850699677664
944,0.8757233738836303
946,1.835094323646329
948,-1.5911823412967454
950,0.22756291881490442
952,1.4645588048001232
954,3.043621082643513
956,0.027056986644400358
958,-0.10659459427895207
960,-0.7023202398106899
962,-2.0064684457895754
964,-3.0020412361544704
966,-2.2327748367148637
968,-2.2451702637504916
970,3.087313082970052
972,-1.474238603491238
974,-1.3750943045639343
976,0.09099228775895851
978,-4.359327552662422
980,0.17173412192045567
982,0.5883557203648353
984,-0.6237451035931326
986,0.24693956783995888
988,-1.1733774690472267
990,1.089032408027303
992,0.5823660453244227
994,0.22070109661222787
996,-2.4283186811864717
998,-1.410528741235163
