wave,flux
336,3621.5334282109416
338,6026.477830051995
340,9486.921670265994
342,15063.526761583107
344,22763.328435387662
346,32074.63395961045
348,43149.325097141584
350,56296.02238410555
352,71812.99821021865
354,90030.40756376329
356,110877.75616331722
358,134158.6403674731
360,160280.22288225853
362,189924.26370014454
364,223207.13205177544
366,260315.54930593676
368,302906.8979656261
370,353321.86028261966
372,414787.28125326656
374,494553.4693966181
376,608469.9181042151
378,775262.975266462
380,1005510.9211217299
382,1299548.1483686743
384,1651110.5494581875
386,2053275.0051122797
388,2502790.4777638856
390,3010655.831012499
392,3616135.9294738835
394,4331676.019450892
396,5051023.013751625
398,5615778.5838903105
400,5920094.284514527
402,6029353.619325035
404,6041463.839925624
406,6041223.017184543
408,6041826.495868649
410,6041573.10521415
412,6041395.842522878
414,6041240.053889849
416,6041145.920155983
418,6041832.875344154
420,6041504.011323879
422,6041717.0027598785
424,6041550.6843679575
426,6041151.405720578
428,6041134.023718384
430,6041425.992402138
432,6041171.928810874
434,6041631.044340016
436,6041164.678840452
438,6041224.107665298
440,6041456.088341198
442,6041536.73469479
444,6041265.279258433
446,6041508.161816449
448,6041811.732527932
450,6041675.386639497
452,6041554.4281841675
454,6041725.8353096
456,6040976.465388038
458,6041798.897650153
460,6040935.568757091
462,6041457.0611889
464,6041720.164772849
466,6041532.085131504
468,6040846.963927312
470,6041120.376540978
472,6041185.540885818
474,6041308.315493684
476,6041276.749884132
478,6041314.182162451
480,6041330.131066967
482,6041804.557086287
484,6041274.772657529
486,6041592.953927862
488,6041088.036432882
490,6041085.092513133
492,6041762.189605572
494,6040988.6707109
496,6041523.037484645
498,6041163.386133443
500,6041433.54016561
502,6042004.401754785
504,6041616.124461666
506,6041428.981088935
508,6041385.122248484
510,6042122.596356237
512,6041400.520940528
514,6041651.141672447
516,6041576.118143223
518,6041212.411243625
520,6041234.467930843
522,6041202.051534509
524,6041096.673808196
526,6041426.0304134395
528,6041638.960182635
530,6041480.229357392
532,6041735.691623792
534,6041310.542521681
536,6041565.6470079115
538,6041366.987525485
540,6041643.191083745
542,6041496.323113046
544,6040969.46221185
546,6041530.976686076
548,6041602.323200701
550,6041172.0107345255
552,6041221.707391533
554,6041304.130535906
556,6041040.544867282
558,6041319.347533257
560,6041724.457685367
562,6041075.586429795
564,6041431.849719584
566,6041445.0354106035
568,6041567.869572846
570,6041462.782028585
572,6041368.2758623725
574,6041473.090975901
576,6041140.3228216665
578,6041517.418454399
580,6041850.724799761
582,6041565.7152358955
584,6041423.318682779
586,6041260.346932704
588,6041138.313004965
590,6041017.25680805
592,6041393.451123309
594,6041538.402820721
596,6041266.332870393
598,6041495.782564259
600,6041618.311967694
602,6041772.986873952
604,6041692.987796477
606,6041361.3560618255
608,6041336.66468663
610,6041624.969524688
612,6041748.26755117
614,6041299.1289309375
616,6040694.295757156
618,6041323.4784105485
620,6042766.005811542
622,6043143.261157573
624,6041784.409533408
626,6042097.859416665
628,6042341.78316133
630,6041419.893741738
632,6042019.773846045
634,6041939.989728104
636,6041494.523579303
638,6042997.635810899
640,6042857.371468196
642,6041375.082163136
644,6041144.054503157
646,6040276.456011589
648,6041576.080959571
650,6040934.299156738
652,6041379.074306126
654,6041396.394629932
656,6041158.90132462
658,6041511.926227774
660,6041551.276520445
662,6041377.486412514
664,6041484.487381844
666,6041443.750085349
668,6041107.991048587
670,6041563.760999659
672,6041267.2062764475
674,6041163.483843256
676,6041536.128915831
678,6041346.24345349
680,6041150.289956291
682,6041410.314774397
684,6041560.064687422
686,6041447.9187860545
688,6040955.81893969
690,6041315.875338955
692,6041350.307975556
694,6041850.281893436
696,6041497.367671758
698,6041199.302168769
700,6041453.64627868
702,6041828.693192877
704,6040860.42770877
706,6041675.622792104
708,6041571.681644926
710,6041346.454989626
712,6041546.234560798
714,6041858.824615336
716,6041142.5820534965
718,6041286.403162461
720,6041703.1207177285
722,6041807.585318082
724,6041329.8607438
726,6041296.890614847
728,6041527.288726995
730,6041723.792105585
732,6041192.330811199
734,6041150.1016538385
736,6041704.398114255
738,6041255.137810724
740,6041344.973276121
742,6041402.044472554
744,6041509.896928869
746,6041611.23472158
748,6041281.529689905
750,6041392.455248062
752,6040981.1977447625
754,6041295.389267499
756,6041239.4416478425
758,6041271.659960353
760,6041533.037164191
762,6033170.558480699
764,5997309.196911797
766,5919816.184365741
768,5789128.623488824
770,5591227.92157777
772,5331562.926099856
774,5030824.995786329
776,4699258.250554136
778,4346757.545140255
780,3987299.429810042
782,3631624.3336451664
784,3286378.269654552
786,2964560.482130975
788,2677357.907088312
790,2431812.978824052
792,2227005.630354121
794,2056991.6675400746
796,1912122.286436368
798,1783069.2196949078
800,1663500.214270693
802,1548744.6415391257
804,1440089.3704584274
806,1338355.7413583586
808,1246002.4351940232
810,1164641.9993123675
812,1094313.8934356393
814,1033315.1507154639
816,979276.3012057306
818,928884.3489745458
820,880151.1850921786
822,831067.2044299131
824,781134.7456778135
826,731197.4373941015
828,682133.9307999852
830,635157.065687494
832,590767.9318637582
834,549817.9262336656
836,511926.9827578021
838,476508.58827418834
840,442988.8091633684
842,410512.7161371145
844,378885.83903410326
846,347759.8550145639
848,317145.038704723
850,286997.5341464601
852,257814.11993689087
854,229635.74166079867
856,202883.51438950063
858,177548.2583061767
860,153963.78261275878
862,132580.8515415665
864,113288.53811543316
866,96239.40874515912
868,81413.00428997858
870,68826.20859127876
872,58133.754868965356
874,49160.33286656182
876,41666.7751322839
878,35497.06635140222
880,30295.018445045593
882,25695.68578759554
884,21591.37521759164
886,17852.922836174053
888,14389.809163301048
890,11160.697668091325
892,8122.388938503005
894,5540.658797514908
896,3560.8201047046186
898,2067.8082667675035
900,1036.1379326991748
902,389.7262820249188
904,91.05201843704549
906,33.85408597934234
908,10.175341117526877
910,0.4798427012002451
912,-3.482973111878331
914,2.393407046365594
916,-5.54246237681494
918,-0.29287613119402345
920,-2.3379566926154904
922,4.289920058427215
924,0.9442159283387628
926,-2.7336637591896857
928,1.0006701908683229
930,-1.3057717257606596
932,1.5404292547943992
934,4.001179039549514
936,-1.414773894536123
938,3.248233771030033
940,0.4896997775772239
942,3.269850699677664
944,0.8757233738836303
946,1.835094323646329
948,-1.5911823412967454
950,0.22756291881490442
952,1.4645588048001232
954,3.043621082643513
956,0.027056986644400358
958,-0.10659459427895207
960,-0.7023202398106899
962,-2.0064684457895754
964,-3.0020412361544704
966,-2.2327748367148637
968,-2.2451702637504916
970,3.087313082970052
972,-1.474238603491238
974,-1.3750943045639343
976,0.09099228775895851
978,-4.359327552662422
980,0.17173412192045567
982,0.5883557203648353
984,-0.6237451035931326
986,0.24693956783995888
988,-1.1733774690472267
990,1.089032408027303
992,0.5823660453244227
994,0.22070109661222787
996,-2.4283186811864717
998,-1.410528741235163
