wave,flux
336,46.07239850832726
338,494.5692953751564
340,1753.772617705501
342,3788.830527248472
344,6264.417226011145
346,9131.059461414197
348,12474.812450395653
350,16251.609077472069
352,20577.782757679724
354,25469.7183901941
356,30970.829579120757
358,37416.25102945963
360,44938.337797689164
362,53553.51581212743
364,63363.686786605766
366,74353.91182422904
368,86393.2107364641
370,99275.02642971938
372,112721.96223268437
374,126665.46934191986
376,141918.13168377415
378,160073.1043084232
380,182669.70560981278
382,212375.56375198212
384,257523.9748604781
386,336113.0335240204
388,474535.08641460043
390,697878.0316537456
392,1016458.6754736861
394,1408436.9075919217
396,1828049.031027075
398,2223974.9066266525
400,2568110.1600563037
402,2857439.2943896013
404,3107051.1921785837
406,3337926.0704600676
408,3566994.9713530205
410,3806842.7288819887
412,4055079.144097025
414,4298997.468418572
416,4522630.237968102
418,4719216.637344389
420,4891119.773763606
422,5048747.245222316
424,5197231.341360105
426,5338856.7291055685
428,5473014.514455421
430,5600186.3323851675
432,5721092.553234694
434,5829228.822455817
436,5919501.178937472
438,5983815.252332888
440,6020058.437599201
442,6036977.923270616
444,6041070.039074736
446,6041146.739001346
448,6041367.746327552
450,6041651.519517839
452,6041049.465618164
454,6041575.257010568
456,6041420.924765194
458,6041855.952105024
460,6041554.107483272
462,6041455.767578631
464,6041276.925366384
466,6041302.695640453
468,6041270.592465859
470,6041105.948428008
472,6041232.313538197
474,6041464.143087733
476,6041365.715559706
478,6041269.877547896
480,6041159.3091396615
482,6041541.540195254
484,6041512.752765226
486,6041458.451439913
488,6041265.065090641
490,6041424.174055439
492,6041335.005772912
494,6041251.606286606
496,6041624.220049487
498,6041446.997332797
500,6041631.783513772
502,6041327.343329289
504,6041997.418378031
506,6041404.22415741
508,6041745.037708474
510,6041264.028866258
512,6041398.208847736
514,6041550.281057062
516,6041354.476555588
518,6041508.897376733
520,6041546.043219036
522,6041709.891061511
524,6041465.224532947
526,6041478.170563199
528,6041269.522414566
530,6041753.652146998
532,6041401.680983665
534,6041695.910004712
536,6041215.2357254
538,6041696.663568654
540,6041670.750290362
542,6041196.556478224
544,6041437.674087965
546,6041417.947658018
548,6041188.0209772885
550,6041204.070702508
552,6041591.979644698
554,6041285.213455799
556,6041317.918044222
558,6041157.431531372
560,6041059.537714296
562,6041461.139870375
564,6041594.310921878
566,6041160.942641828
568,6041508.781472534
570,6041710.153652876
572,6041341.219199056
574,6041417.258526063
576,6041222.012616187
578,6041396.201772245
580,6041665.513188347
582,6041565.989439697
584,6041341.749885106
586,6041145.028095047
588,6041430.27976059
590,6040807.919769988
592,6041034.5267721
594,6041496.655524811
596,6041251.065161974
598,6041436.721520713
600,6041566.610067002
602,6041525.714952237
604,6041267.655259451
606,6041121.414945928
608,6041409.838538825
610,6041337.922568044
612,6041110.653854783
614,6041261.235746776
616,6041830.797069266
618,6042066.983616658
620,6041241.089134561
622,6040775.150247201
624,6042165.092868421
626,6042646.44637354
628,6042452.452671035
630,6042394.896413963
632,6041827.071032907
634,6041247.811745659
636,6041004.306134722
638,6040778.498135429
640,6039846.93104207
642,6039462.828559573
644,6040771.1015727995
646,6040261.653576303
648,6038821.233554776
650,6039520.541364269
652,6039849.557603056
654,6039810.412960228
656,6041492.2362590255
658,6042099.895394334
660,6040952.264087781
662,6041230.853646934
664,6042218.496113345
666,6042481.960219771
668,6043056.356402416
670,6043485.308820562
672,6042253.626909184
674,6040755.956430832
676,6040248.906742103
678,6039694.832247768
680,6039982.725516336
682,6041450.320516297
684,6041602.3783592265
686,6041450.3205328835
688,6040955.941074882
690,6041315.881530067
692,6041350.308305612
694,6041850.281913616
696,6041497.367673279
698,6041199.302168905
700,6041453.646278694
702,6041828.693192879
704,6040860.427708771
706,6041675.622792104
708,6041571.681644926
710,6041346.454989626
712,6041546.234560798
714,6041858.824615336
716,6041142.5820534965
718,6041286.403162461
720,6041703.1207177285
722,6041807.585318082
724,6041329.8607438
726,6041296.890614847
728,6041527.288726995
730,6041723.792105585
732,6041192.330811199
734,6041150.1016538385
736,6041704.398114255
738,6041255.137810724
740,6041344.973276121
742,6041402.044472554
744,6041509.896928869
746,6041611.23472158
748,6041281.529689905
750,6041392.455248062
752,6040981.1977447625
754,6041295.389267499
756,6041239.4416478425
758,6041271.659960353
760,6041533.037164191
762,6033170.558480699
764,5997309.196911797
766,5919816.184365741
768,5789128.623488824
770,5591227.92157777
772,5331562.926099856
774,5030824.995786329
776,4699258.250554136
778,4346757.545140255
780,3987299.429810042
782,3631624.3336451664
784,3286378.269654552
786,2964560.482130975
788,2677357.907088312
790,2431812.978824052
792,2227005.630354121
794,2056991.6675400746
796,1912122.286436368
798,1783069.2196949078
800,1663500.214270693
802,1548744.6415391257
804,1440089.3704584274
806,1338355.7413583586
808,1246002.4351940232
810,1164641.9993123675
812,1094313.8934356393
814,1033315.1507154639
816,979276.3012057306
818,928884.3489745458
820,880151.1850921786
822,831067.2044299131
824,781134.7456778135
826,731197.4373941015
828,682133.9307999852
830,635157.065687494
832,590767.9318637582
834,549817.9262336656
836,511926.9827578021
838,476508.58827418834
840,442988.8091633684
842,410512.7161371145
844,378885.83903410326
846,347759.8550145639
848,317145.038704723
850,286997.5341464601
852,257814.11993689087
854,229635.74166079867
856,202883.51438950063
858,177548.2583061767
860,153963.78261275878
862,132580.8515415665
864,113288.53811543316
866,96239.40874515912
868,81413.00428997858
870,68826.20859127876
872,58133.754868965356
874,49160.33286656182
876,41666.7751322839
878,35497.06635140222
880,30295.018445045593
882,25695.68578759554
884,21591.37521759164
886,17852.922836174053
888,14389.809163301048
890,11160.697668091325
892,8122.388938503005
894,5540.658797514908
896,3560.8201047046186
898,2067.8082667675035
900,1036.1379326991748
902,389.7262820249188
904,91.05201843704549
906,33.85408597934234
908,10.175341117526877
910,0.4798427012002451
912,-3.482973111878331
914,2.393407046365594
916,-5.54246237681494
918,-0.29287613119402345
920,-2.3379566926154904
922,4.289920058427215
924,0.9442159283387628
926,-2.7336637591896857
928,1.0006701908683229
930,-1.3057717257606596
932,1.5404292547943992
934,4.001179039549514
936,-1.414773894536123
938,3.248233771030033
940,0.4896997775772239
942,3.269850699677664
944,0.8757233738836303
946,1.835094323646329
948,-1.5911823412967454
950,0.22756291881490442
952,1.4645588048001232
954,3.043621082643513
956,0.027056986644400358
958,-0.10659459427895207
960,-0.7023202398106899
962,-2.0064684457895754
964,-3.0020412361544704
966,-2.2327748367148637
968,-2.2451702637504916
970,3.087313082970052
972,-1.474238603491238
974,-1.3750943045639343
976,0.09099228775895851
978,-4.359327552662422
980,0.17173412192045567
982,0.5883557203648353
984,-0.6237451035931326
986,0.24693956783995888
988,-1.1733774690472267
990,1.089032408027303
992,0.5823660453244227
994,0.22070109661222787
996,-2.4283186811864717
998,-1.410528741235163
