wave,flux
336,840.7334770419951
338,1229.86264704412
340,1452.1971428248662
342,1613.1742778337016
344,1790.510338478743
346,1990.1027255897118
348,2230.998616479072
350,2536.672284613558
352,2985.5921314362836
354,3605.9197546162327
356,4361.758869463907
358,5065.753138347115
360,5584.946952275507
362,5925.471360813329
364,6106.176297119563
366,6292.309789780821
368,6839.238004321763
370,8333.291574310955
372,11830.904801558674
374,19325.08998257617
376,33814.34927514517
378,58699.5808448795
380,96507.61310279489
382,147176.250261677
384,206120.35063108656
386,262154.1428579296
388,299006.14167513006
390,302948.4629578699
392,272759.3713085761
394,220678.8979023167
396,165012.60684502518
398,118694.54003651945
400,86243.340435465
402,65508.75660460036
404,52908.610815463566
406,45327.255425954325
408,40974.07760495201
410,39023.20980524239
412,39063.21858596157
414,40980.97415031212
416,44506.46937739588
418,49734.12209745632
420,57093.692635698
422,67193.5036164483
424,80746.37401872381
426,98180.32001232458
428,119521.9205877467
430,144621.03972689845
432,173165.6143734187
434,204817.64446370766
436,239755.74070337604
438,278797.6077589512
440,322919.4112277205
442,372740.4127830349
444,428639.1437934688
446,489604.2470394949
448,555140.9560667373
450,624910.3791735285
452,699338.0315953507
454,780889.604447767
456,871764.3121367424
458,971145.7338652783
460,1077031.4947143877
462,1185691.8143722122
464,1289719.9824268948
466,1386217.9567975523
468,1475919.5889365077
470,1561943.503147659
472,1650830.0853621536
474,1750960.072998825
476,1871298.1678865827
478,2021327.0068973615
480,2211140.177375394
482,2450020.2425026284
484,2744183.7600245266
486,3091286.9813136156
488,3479958.044563037
490,3887447.1666168217
492,4281786.799469676
494,4627388.128823038
496,4891358.68065424
498,5052473.42153028
500,5101252.835661726
502,5047951.949148925
504,4916522.438305976
506,4741497.525528752
508,4561040.709815493
510,4412010.737588229
512,4323992.930358802
514,4318448.474889518
516,4397836.094780969
518,4550679.254424741
520,4757047.710407211
522,4996008.620451771
524,5241994.870309612
526,5471462.785266357
528,5661142.280390133
530,5805971.360794451
532,5911118.186980277
534,5979714.608238532
536,6019242.426693578
538,6037357.354587584
540,6041354.891571562
542,6041430.153378359
544,6041501.047595951
546,6041532.619044369
548,6041536.713212661
550,6041619.497081393
552,6041353.079962434
554,6041550.00085908
556,6041585.027921076
558,6041062.998236127
560,6041489.857679816
562,6041259.3430646965
564,6041817.628152628
566,6041387.827462939
568,6041819.631916915
570,6041302.179806558
572,6041229.9546769075
574,6041289.157474504
576,6041441.414377725
578,6041645.093372101
580,6041350.758039071
582,6041100.8634682195
584,6041361.333010696
586,6041404.824712268
588,6041629.932130851
590,6041346.250394529
592,6041337.845220767
594,6041447.87260715
596,6041375.653587135
598,6041546.178953214
600,6041458.444160383
602,6041466.569341557
604,6041584.971303438
606,6041391.168290734
608,6041003.575667751
610,6041555.133373704
612,6041282.8855910655
614,6040762.50405517
616,6041367.082985007
618,6040677.825655602
620,6041149.2542018
622,6042314.665990323
624,6041839.578944161
626,6043129.655943606
628,6043763.443349092
630,6041853.652397217
632,6040370.636415892
634,6039861.48994017
636,6040051.72887231
638,6040666.784169
640,6041432.086786934
642,6042073.067682806
644,6042315.157813309
646,6041883.788135135
648,6041643.158140607
650,6041400.88255816
652,6041705.761825997
654,6041397.6896827305
656,6041151.216824122
658,6041511.4312165305
660,6041551.262288463
662,6041377.486709214
664,6041484.487439378
666,6041443.750089349
668,6041107.991048771
670,6041563.760999665
672,6041267.2062764475
674,6041163.483843256
676,6041536.128915831
678,6041346.24345349
680,6041150.289956291
682,6041410.314774397
684,6041560.064687422
686,6041447.9187860545
688,6040955.81893969
690,6041315.875338955
692,6041350.307975556
694,6041850.281893436
696,6041497.367671758
698,6041199.302168769
700,6041453.64627868
702,6041828.693192877
704,6040860.42770877
706,6041675.622792104
708,6041571.681644926
710,6041346.454989626
712,6041546.234560798
714,6041858.824615336
716,6041142.5820534965
718,6041286.403162461
720,6041703.1207177285
722,6041807.585318082
724,6041329.8607438
726,6041296.890614847
728,6041527.288726995
730,6041723.792105585
732,6041192.330811199
734,6041150.1016538385
736,6041704.398114255
738,6041255.137810724
740,6041344.973276121
742,6041402.044472554
744,6041509.896928869
746,6041611.23472158
748,6041281.529689905
750,6041392.455248062
752,6040981.1977447625
754,6041295.389267499
756,6041239.4416478425
758,6041271.659960353
760,6041533.037164191
762,6033170.558480699
764,5997309.196911797
766,5919816.184365741
768,5789128.623488824
770,5591227.92157777
772,5331562.926099856
774,5030824.995786329
776,4699258.250554136
778,4346757.545140255
780,3987299.429810042
782,3631624.3336451664
784,3286378.269654552
786,2964560.482130975
788,2677357.907088312
790,2431812.978824052
792,2227005.630354121
794,2056991.6675400746
796,1912122.286436368
798,1783069.2196949078
800,1663500.214270693
802,1548744.6415391257
804,1440089.3704584274
806,1338355.7413583586
808,1246002.4351940232
810,1164641.9993123675
812,1094313.8934356393
814,1033315.1507154639
816,979276.3012057306
818,928884.3489745458
820,880151.1850921786
822,831067.2044299131
824,781134.7456778135
826,731197.4373941015
828,682133.9307999852
830,635157.065687494
832,590767.9318637582
834,549817.9262336656
836,511926.9827578021
838,476508.58827418834
840,442988.8091633684
842,410512.7161371145
844,378885.83903410326
846,347759.8550145639
848,317145.038704723
850,286997.5341464601
852,257814.11993689087
854,229635.74166079867
856,202883.51438950063
858,177548.2583061767
860,153963.78261275878
862,132580.8515415665
864,113288.53811543316
866,96239.40874515912
868,81413.00428997858
870,68826.20859127876
872,58133.754868965356
874,49160.33286656182
876,41666.7751322839
878,35497.06635140222
880,30295.018445045593
882,25695.68578759554
884,21591.37521759164
886,17852.922836174053
888,14389.809163301048
890,11160.697668091325
892,8122.388938503005
894,5540.658797514908
896,3560.8201047046186
898,2067.8082667675035
900,1036.1379326991748
902,389.7262820249188
904,91.05201843704549
906,33.85408597934234
908,10.175341117526877
910,0.4798427012002451
912,-3.482973111878331
914,2.393407046365594
916,-5.54246237681494
918,-0.29287613119402345
920,-2.3379566926154904
922,4.289920058427215
924,0.9442159283387628
926,-2.7336637591896857
928,1.0006701908683229
930,-1.3057717257606596
932,1.5404292547943992
934,4.001179039549514
936,-1.414773894536123
938,3.248233771030033
940,0.4896997775772239
942,3.269850699677664
944,0.8757233738836303
946,1.835094323646329
948,-1.5911823412967454
950,0.22756291881490442
952,1.4645588048001232
954,3.043621082643513
956,0.027056986644400358
958,-0.10659459427895207
960,-0.7023202398106899
962,-2.0064684457895754
964,-3.0020412361544704
966,-2.2327748367148637
968,-2.2451702637504916
970,3.087313082970052
972,-1.474238603491238
974,-1.3750943045639343
976,0.09099228775895851
978,-4.359327552662422
980,0.17173412192045567
982,0.5883557203648353
984,-0.6237451035931326
986,0.24693956783995888
988,-1.1733774690472267
990,1.089032408027303
992,0.5823660453244227
994,0.22070109661222787
996,-2.4283186811864717
998,-1.410528741235163
