wave,flux
336,800.5252130454478
338,1294.3395277927089
340,1794.0166375284775
342,2386.816228013833
344,3111.809511389251
346,3939.3746612311297
348,4950.631256490794
350,6092.139069375443
352,7406.837522734755
354,9057.727368106343
356,11083.590705477463
358,13300.7768169056
360,15641.476962708757
362,18119.690116295835
364,20713.086900239032
366,23612.999514183917
368,27305.4182698981
370,32257.081789940417
372,39243.92380213651
374,50108.987918627034
376,68054.89550901746
378,96627.74613188583
380,138533.8906486409
382,194507.44292495516
384,262943.3825408515
386,338288.2951221368
388,411128.2918621129
390,472943.46063210035
392,523392.4756078808
394,568085.6209999166
396,613969.4288488674
398,662794.3724005064
400,714471.342272513
402,767106.7161178691
404,820698.2211369239
406,875051.3725184533
408,929992.8509961666
410,984538.3208829605
412,1038453.5645158996
414,1093674.1565577951
416,1154679.1945321772
418,1226017.9679600643
420,1308280.854841373
422,1397689.0712687448
424,1489223.3381864436
426,1580241.3111461704
428,1670287.580282305
430,1760059.460198229
432,1850844.5395304477
434,1944642.8127016667
436,2046110.6116081956
438,2162412.210150064
440,2299522.4769147793
442,2458786.711715818
444,2635392.4711332475
446,2819904.4872945785
448,3005382.0472326274
450,3190621.0217763605
452,3380007.999748088
454,3584923.527595126
456,3816401.5520475614
458,4078484.5011352417
460,4366844.494407528
462,4670591.9834442865
464,4971958.974656696
466,5250529.2686354155
468,5491971.088015409
470,5687005.355622999
472,5833859.247256366
474,5931498.244243323
476,5991032.962861716
478,6023235.203187547
480,6038002.950086862
482,6041605.839749814
484,6041525.249394525
486,6041328.7564210845
488,6041714.749326592
490,6041367.392132372
492,6041610.160803144
494,6041689.889770437
496,6041561.549338529
498,6041666.6573357275
500,6041450.876829131
502,6041561.8519199705
504,6041342.561097886
506,6041442.14518258
508,6041250.837227968
510,6041296.738851953
512,6041581.668959153
514,6041341.118542102
516,6041574.653119179
518,6041818.189898812
520,6041431.64623651
522,6041072.561677654
524,6041367.77646512
526,6041305.710650872
528,6041096.199472443
530,6041701.574598361
532,6041666.070699264
534,6041129.642643104
536,6041398.163841449
538,6042008.4170602085
540,6041249.092794187
542,6041035.9437812865
544,6041286.264385246
546,6041495.595261966
548,6041446.57008304
550,6041485.584337988
552,6041291.468632648
554,6041384.416803847
556,6041296.57895438
558,6041268.353633005
560,6041324.508923565
562,6041409.67522651
564,6041311.462940366
566,6041439.553632752
568,6041568.177775623
570,6041139.038298794
572,6041499.827658385
574,6041022.019635876
576,6041076.9009873755
578,6041284.013685596
580,6041398.268780606
582,6041688.351555257
584,6041715.038858955
586,6041440.338757377
588,6041551.3373345975
590,6041402.024627053
592,6041350.593463158
594,6041544.155052967
596,6041477.619603511
598,6041133.789730514
600,6041438.95989785
602,6041576.138633506
604,6041323.804954607
606,6041142.475779574
608,6041199.017813694
610,6041071.668335939
612,6041248.323771857
614,6041465.97624689
616,6041290.513379804
618,6041687.586605313
620,6041967.387129203
622,6041171.259515396
624,6039983.715544829
626,6041403.396728448
628,6041729.66516263
630,6040085.182244866
632,6042041.083638717
634,6042601.605241244
636,6040688.998322262
638,6040459.406541692
640,6040666.530267983
642,6040700.624136537
644,6041097.061343005
646,6041606.697902054
648,6042184.567615695
650,6042680.792854772
652,6041889.172543444
654,6040726.643908918
656,6041189.4040713785
658,6041539.645165599
660,6041552.073462785
662,6041377.4697983675
664,6041484.484160124
666,6041443.749861281
668,6041107.991038203
670,6041563.760999398
672,6041267.206276457
674,6041163.483843258
676,6041536.128915831
678,6041346.24345349
680,6041150.289956291
682,6041410.314774397
684,6041560.064687422
686,6041447.9187860545
688,6040955.81893969
690,6041315.875338955
692,6041350.307975556
694,6041850.281893436
696,6041497.367671758
698,6041199.302168769
700,6041453.64627868
702,6041828.693192877
704,6040860.42770877
706,6041675.622792104
708,6041571.681644926
710,6041346.454989626
712,6041546.234560798
714,6041858.824615336
716,6041142.5820534965
718,6041286.403162461
720,6041703.1207177285
722,6041807.585318082
724,6041329.8607438
726,6041296.890614847
728,6041527.288726995
730,6041723.792105585
732,6041192.330811199
734,6041150.1016538385
736,6041704.398114255
738,6041255.137810724
740,6041344.973276121
742,6041402.044472554
744,6041509.896928869
746,6041611.23472158
748,6041281.529689905
750,6041392.455248062
752,6040981.1977447625
754,6041295.389267499
756,6041239.4416478425
758,6041271.659960353
760,6041533.037164191
762,6033170.558480699
764,5997309.196911797
766,5919816.184365741
768,5789128.623488824
770,5591227.92157777
772,5331562.926099856
774,5030824.995786329
776,4699258.250554136
778,4346757.545140255
780,3987299.429810042
782,3631624.3336451664
784,3286378.269654552
786,2964560.482130975
788,2677357.907088312
790,2431812.978824052
792,2227005.630354121
794,2056991.6675400746
796,1912122.286436368
798,1783069.2196949078
800,1663500.214270693
802,1548744.6415391257
804,1440089.3704584274
806,1338355.7413583586
808,1246002.4351940232
810,1164641.9993123675
812,1094313.8934356393
814,1033315.1507154639
816,979276.3012057306
818,928884.3489745458
820,880151.1850921786
822,831067.2044299131
824,781134.7456778135
826,731197.4373941015
828,682133.9307999852
830,635157.065687494
832,590767.9318637582
834,549817.9262336656
836,511926.9827578021
838,476508.58827418834
840,442988.8091633684
842,410512.7161371145
844,378885.83903410326
846,347759.8550145639
848,317145.038704723
850,286997.5341464601
852,257814.11993689087
854,229635.74166079867
856,202883.51438950063
858,177548.2583061767
860,153963.78261275878
862,132580.8515415665
864,113288.53811543316
866,96239.40874515912
868,81413.00428997858
870,68826.20859127876
872,58133.754868965356
874,49160.33286656182
876,41666.7751322839
878,35497.06635140222
880,30295.018445045593
882,25695.68578759554
884,21591.37521759164
886,17852.922836174053
888,14389.809163301048
890,11160.697668091325
892,8122.388938503005
894,5540.658797514908
896,3560.8201047046186
898,2067.8082667675035
900,1036.1379326991748
902,389.7262820249188
904,91.05201843704549
906,33.85408597934234
908,10.175341117526877
910,0.4798427012002451
912,-3.482973111878331
914,2.393407046365594
916,-5.54246237681494
918,-0.29287613119402345
920,-2.3379566926154904
922,4.289920058427215
924,0.9442159283387628
926,-2.7336637591896857
928,1.0006701908683229
930,-1.3057717257606596
932,1.5404292547943992
934,4.001179039549514
936,-1.414773894536123
938,3.248233771030033
940,0.4896997775772239
942,3.269850699677664
944,0.8757233738836303
946,1.835094323646329
948,-1.5911823412967454
950,0.22756291881490442
952,1.4645588048001232
954,3.043621082643513
956,0.027056986644400358
958,-0.10659459427895207
960,-0.7023202398106899
962,-2.0064684457895754
964,-3.0020412361544704
966,-2.2327748367148637
968,-2.2451702637504916
970,3.087313082970052
972,-1.474238603491238
974,-1.3750943045639343
976,0.09099228775895851
978,-4.359327552662422
980,0.17173412192045567
982,0.5883557203648353
984,-0.6237451035931326
986,0.24693956783995888
988,-1.1733774690472267
990,1.089032408027303
992,0.5823660453244227
994,0.22070109661222787
996,-2.4283186811864717
998,-1.410528741235163
