wave,flux
336,1.0987377101066604
338,-2.098344972111335
340,-2.8262132651363387
342,-0.41988732929405576
344,2.610500350857349
346,3.148913128985079
348,-5.469909342453847
350,-1.5223984752516428
352,-0.16850716641520538
354,1.8557070758484124
356,5.40371721635757
358,314.4719594407469
360,1759.7421708007626
362,4840.45273638513
364,9069.309637528524
366,13845.556578048292
368,18995.13200617695
370,24612.81208719774
372,30813.547319182348
374,37722.55276879569
376,45521.54311482879
378,54507.37779020635
380,64928.44084964181
382,77060.68453964937
384,91357.91340560553
386,108090.85534750759
388,126903.18368502721
390,147290.30591782878
392,169009.4858843579
394,191904.05022728894
396,215115.09155780237
398,237939.00617716476
400,260542.95711623048
402,283642.8696067724
404,308221.4655876227
406,335050.3896170163
408,365989.47950001847
410,402757.5092526423
412,446206.35983299714
414,497095.0690406256
416,558611.9753475903
418,641595.6172194381
420,769485.9410902777
422,977867.0490232528
424,1308982.4132870552
426,1795209.168038303
428,2440272.1272080126
430,3207674.6696611666
432,4012478.5096549345
434,4749066.249278409
436,5333400.073889072
438,5719790.868007978
440,5927905.274580237
442,6017130.026824534
444,6040789.569507315
446,6041459.068142564
448,6041089.37864645
450,6041635.260693799
452,6041298.738544873
454,6041504.556392003
456,6041556.152744424
458,6041253.523309513
460,6041080.467899639
462,6041526.201967212
464,6041874.269290825
466,6041021.066398416
468,6041772.259131312
470,6041236.598005659
472,6041454.254893307
474,6041141.869121809
476,6041349.916365067
478,6041783.139915256
480,6041569.4711949695
482,6041646.456011821
484,6041366.0093794
486,6041237.584052918
488,6041290.199309748
490,6041482.604160652
492,6041196.543218191
494,6041313.403741976
496,6041380.480087394
498,6041428.183813515
500,6041456.901169718
502,6041112.176870738
504,6041770.158997925
506,6041218.484295121
508,6041243.706545196
510,6041095.369704958
512,6041510.816533002
514,6041256.945347608
516,6041348.579606686
518,6041157.242696878
520,6041381.348240407
522,6040938.043745801
524,6041620.087394986
526,6041416.648850569
528,6041583.3256147215
530,6041724.460738824
532,6041306.452436704
534,6041635.29536552
536,6041351.715801236
538,6041645.834634505
540,6041472.74456715
542,6041600.254597171
544,6041233.481990156
546,6041638.53750402
548,6041444.816889534
550,6041474.528472381
552,6041604.483854309
554,6041331.110625406
556,6041213.903120524
558,6041112.4136324525
560,6041241.5720599815
562,6041202.854096868
564,6041312.794885096
566,6041357.066261847
568,6041616.169177354
570,6041725.97413628
572,6041297.903126091
574,6041355.6026765155
576,6041496.314713961
578,6041407.910835492
580,6041543.2144649485
582,6041686.24697599
584,6041302.680366873
586,6041059.105573814
588,6041641.352559609
590,6041302.012955852
592,6040489.1513233725
594,6040747.353215626
596,6041588.813852028
598,6041452.514045991
600,6041424.366547533
602,6041492.746804954
604,6041352.761325604
606,6041106.314896922
608,6041139.380801085
610,6041477.217062859
612,6041476.620933176
614,6041390.77835554
616,6041669.793067256
618,6041453.783282284
620,6041603.269151709
622,6041566.035330712
624,6040488.068781903
626,6041017.13272583
628,6041552.113729945
630,6040822.622547184
632,6040814.746046162
634,6041197.103515321
636,6041539.13048917
638,6041977.165016662
640,6042435.978855921
642,6042791.274562331
644,6042918.754691279
646,6042694.121798145
648,6041993.07843832
650,6041406.965140816
652,6041706.037649571
654,6041397.68979643
656,6041151.216229316
658,6041511.431178215
660,6041551.262287362
662,6041377.486709237
664,6041484.487439383
666,6041443.750089349
668,6041107.991048771
670,6041563.760999665
672,6041267.2062764475
674,6041163.483843256
676,6041536.128915831
678,6041346.24345349
680,6041150.289956291
682,6041410.314774397
684,6041560.064687422
686,6041447.9187860545
688,6040955.81893969
690,6041315.875338955
692,6041350.307975556
694,6041850.281893436
696,6041497.367671758
698,6041199.302168769
700,6041453.64627868
702,6041828.693192877
704,6040860.42770877
706,6041675.622792104
708,6041571.681644926
710,6041346.454989626
712,6041546.234560798
714,6041858.824615336
716,6041142.5820534965
718,6041286.403162461
720,6041703.1207177285
722,6041807.585318082
724,6041329.8607438
726,6041296.890614847
728,6041527.288726995
730,6041723.792105585
732,6041192.330811199
734,6041150.1016538385
736,6041704.398114255
738,6041255.137810724
740,6041344.973276121
742,6041402.044472554
744,6041509.896928869
746,6041611.23472158
748,6041281.529689905
750,6041392.455248062
752,6040981.1977447625
754,6041295.389267499
756,6041239.4416478425
758,6041271.659960353
760,6041533.037164191
762,6033170.558480699
764,5997309.196911797
766,5919816.184365741
768,5789128.623488824
770,5591227.92157777
772,5331562.926099856
774,5030824.995786329
776,4699258.250554136
778,4346757.545140255
780,3987299.429810042
782,3631624.3336451664
784,3286378.269654552
786,2964560.482130975
788,2677357.907088312
790,2431812.978824052
792,2227005.630354121
794,2056991.6675400746
796,1912122.286436368
798,1783069.2196949078
800,1663500.214270693
802,1548744.6415391257
804,1440089.3704584274
806,1338355.7413583586
808,1246002.4351940232
810,1164641.9993123675
812,1094313.8934356393
814,1033315.1507154639
816,979276.3012057306
818,928884.3489745458
820,880151.1850921786
822,831067.2044299131
824,781134.7456778135
826,731197.4373941015
828,682133.9307999852
830,635157.065687494
832,590767.9318637582
834,549817.9262336656
836,511926.9827578021
838,476508.58827418834
840,442988.8091633684
842,410512.7161371145
844,378885.83903410326
846,347759.8550145639
848,317145.038704723
850,286997.5341464601
852,257814.11993689087
854,229635.74166079867
856,202883.51438950063
858,177548.2583061767
860,153963.78261275878
862,132580.8515415665
864,113288.53811543316
866,96239.40874515912
868,81413.00428997858
870,68826.20859127876
872,58133.754868965356
874,49160.33286656182
876,41666.7751322839
878,35497.06635140222
880,30295.018445045593
882,25695.68578759554
884,21591.37521759164
886,17852.922836174053
888,14389.809163301048
890,11160.697668091325
892,8122.388938503005
894,5540.658797514908
896,3560.8201047046186
898,2067.8082667675035
900,1036.1379326991748
902,389.7262820249188
904,91.05201843704549
906,33.85408597934234
908,10.175341117526877
910,0.4798427012002451
912,-3.482973111878331
914,2.393407046365594
916,-5.54246237681494
918,-0.29287613119402345
920,-2.3379566926154904
922,4.289920058427215
924,0.9442159283387628
926,-2.7336637591896857
928,1.0006701908683229
930,-1.3057717257606596
932,1.5404292547943992
934,4.001179039549514
936,-1.414773894536123
938,3.248233771030033
940,0.4896997775772239
942,3.269850699677664
944,0.8757233738836303
946,1.835094323646329
948,-1.5911823412967454
950,0.22756291881490442
952,1.4645588048001232
954,3.043621082643513
956,0.027056986644400358
958,-0.10659459427895207
960,-0.7023202398106899
962,-2.0064684457895754
964,-3.0020412361544704
966,-2.2327748367148637
968,-2.2451702637504916
970,3.087313082970052
972,-1.474238603491238
974,-1.3750943045639343
976,0.09099228775895851
978,-4.359327552662422
980,0.17173412192045567
982,0.5883557203648353
984,-0.6237451035931326
986,0.24693956783995888
988,-1.1733774690472267
990,1.089032408027303
992,0.5823660453244227
994,0.22070109661222787
996,-2.4283186811864717
998,-1.410528741235163
