wave,flux
336,54568.847287326986
338,75872.78637179342
340,102961.4987085418
342,130932.31803415863
344,157673.67204275972
346,186253.52927608113
348,219999.73584472184
350,257239.9086219981
352,289123.27317350334
354,305594.49346470775
356,308308.0867140704
358,314988.30202536716
360,340655.0632931974
362,384448.85095466656
364,437621.7980191817
366,490813.5265611582
368,537641.6486983554
370,578929.3045845507
372,619222.932721458
374,656704.9162208048
376,687125.3390515686
378,717162.6157390681
380,765795.5674360662
382,848740.6319540457
384,961501.7131901651
386,1083120.238336583
388,1190455.9132797536
390,1273583.6887469878
392,1337675.917856155
394,1400326.3558576251
396,1479598.50432461
398,1584021.4012433286
400,1707427.3716356354
402,1837015.0030409684
404,1971874.8907756736
406,2134383.93218852
408,2359718.55799057
410,2668519.1050018123
412,3048039.999998258
414,3454697.4774631443
416,3838668.3794382806
418,4172550.4021675554
420,4461044.361321694
422,4736308.100377866
424,5027915.535778792
426,5329357.938325836
428,5609189.1072492385
430,5826380.007029079
432,5958343.889627878
434,6020856.071181411
436,6040487.89336683
438,6041399.915943353
440,6041702.794247173
442,6041457.631424311
444,6041082.888559286
446,6041602.228096219
448,6041252.349298141
450,6041271.374314465
452,6041592.710658636
454,6041541.081904744
456,6041398.350942532
458,6041221.0003647795
460,6041507.774851172
462,6041131.643566275
464,6041604.941484448
466,6041038.295801944
468,6041452.524684884
470,6041481.76761638
472,6041212.366803664
474,6041666.55687008
476,6041651.09492787
478,6041635.873412262
480,6041384.069563493
482,6041416.559716489
484,6041559.358189542
486,6041301.292860409
488,6041456.7057129415
490,6041781.517644422
492,6041319.198051551
494,6041492.967791116
496,6041353.763728366
498,6041356.249127069
500,6041391.693643868
502,6041561.911303873
504,6040967.7023512125
506,6041667.5872813715
508,6041238.108784761
510,6041659.871146172
512,6040909.319373597
514,6041495.749229981
516,6041228.525664001
518,6041004.657180083
520,6041444.557403411
522,6041056.732358852
524,6041390.811164328
526,6041390.341529451
528,6041399.593138061
530,6040763.959926654
532,6041600.873123031
534,6041388.633796402
536,6041275.65826925
538,6041507.950598993
540,6041502.073426869
542,6041380.879491157
544,6041557.211593863
546,6041492.741632967
548,6041057.270025789
550,6041380.641473216
552,6041363.816221417
554,6041336.228329722
556,6041859.5608977955
558,6041849.686472118
560,6040963.786192094
562,6040946.9835209735
564,6041333.07609874
566,6041662.346284432
568,6041649.4852266135
570,6041313.176468415
572,6041136.689498978
574,6040845.236831894
576,6041222.938434358
578,6041523.741411103
580,6041367.850423404
582,6041367.665757402
584,6041501.729901591
586,6041316.539581557
588,6041337.755604093
590,6041357.8879042035
592,6041289.525892177
594,6041384.240065674
596,6041535.117407351
598,6041314.696360719
600,6041024.218655582
602,6041331.521991759
604,6041589.358287622
606,6041459.673551391
608,6041510.366034462
610,6041410.744467357
612,6041543.596363203
614,6041621.5829527695
616,6041149.684725175
618,6040893.252748461
620,6040920.32440765
622,6040732.551568508
624,6040268.122211915
626,6040834.324640442
628,6041363.144154446
630,6040920.540583067
632,6040568.009019698
634,6041400.561141545
636,6042349.166806688
638,6041745.250886412
640,6042391.459900431
642,6043050.822670098
644,6041089.601127584
646,6040801.1067343885
648,6042011.925377459
650,6041668.379067858
652,6041367.11548042
654,6041398.639856614
656,6041146.246159183
658,6041511.111022001
660,6041551.253082607
662,6041377.4869011305
664,6041484.487476594
666,6041443.750091938
668,6041107.991048891
670,6041563.760999668
672,6041267.2062764475
674,6041163.483843256
676,6041536.128915831
678,6041346.24345349
680,6041150.289956291
682,6041410.314774397
684,6041560.064687422
686,6041447.9187860545
688,6040955.81893969
690,6041315.875338955
692,6041350.307975556
694,6041850.281893436
696,6041497.367671758
698,6041199.302168769
700,6041453.64627868
702,6041828.693192877
704,6040860.42770877
706,6041675.622792104
708,6041571.681644926
710,6041346.454989626
712,6041546.234560798
714,6041858.824615336
716,6041142.5820534965
718,6041286.403162461
720,6041703.1207177285
722,6041807.585318082
724,6041329.8607438
726,6041296.890614847
728,6041527.288726995
730,6041723.792105585
732,6041192.330811199
734,6041150.1016538385
736,6041704.398114255
738,6041255.137810724
740,6041344.973276121
742,6041402.044472554
744,6041509.896928869
746,6041611.23472158
748,6041281.529689905
750,6041392.455248062
752,6040981.1977447625
754,6041295.389267499
756,6041239.4416478425
758,6041271.659960353
760,6041533.037164191
762,6033170.558480699
764,5997309.196911797
766,5919816.184365741
768,5789128.623488824
770,5591227.92157777
772,5331562.926099856
774,5030824.995786329
776,4699258.250554136
778,4346757.545140255
780,3987299.429810042
782,3631624.3336451664
784,3286378.269654552
786,2964560.482130975
788,2677357.907088312
790,2431812.978824052
792,2227005.630354121
794,2056991.6675400746
796,1912122.286436368
798,1783069.2196949078
800,1663500.214270693
802,1548744.6415391257
804,1440089.3704584274
806,1338355.7413583586
808,1246002.4351940232
810,1164641.9993123675
812,1094313.8934356393
814,1033315.1507154639
816,979276.3012057306
818,928884.3489745458
820,880151.1850921786
822,831067.2044299131
824,781134.7456778135
826,731197.4373941015
828,682133.9307999852
830,635157.065687494
832,590767.9318637582
834,549817.9262336656
836,511926.9827578021
838,476508.58827418834
840,442988.8091633684
842,410512.7161371145
844,378885.83903410326
846,347759.8550145639
848,317145.038704723
850,286997.5341464601
852,257814.11993689087
854,229635.74166079867
856,202883.51438950063
858,177548.2583061767
860,153963.78261275878
862,132580.8515415665
864,113288.53811543316
866,96239.40874515912
868,81413.00428997858
870,68826.20859127876
872,58133.754868965356
874,49160.33286656182
876,41666.7751322839
878,35497.06635140222
880,30295.018445045593
882,25695.68578759554
884,21591.37521759164
886,17852.922836174053
888,14389.809163301048
890,11160.697668091325
892,8122.388938503005
894,5540.658797514908
896,3560.8201047046186
898,2067.8082667675035
900,1036.1379326991748
902,389.7262820249188
904,91.05201843704549
906,33.85408597934234
908,10.175341117526877
910,0.4798427012002451
912,-3.482973111878331
914,2.393407046365594
916,-5.54246237681494
918,-0.29287613119402345
920,-2.3379566926154904
922,4.289920058427215
924,0.9442159283387628
926,-2.7336637591896857
928,1.0006701908683229
930,-1.3057717257606596
932,1.5404292547943992
934,4.001179039549514
936,-1.414773894536123
938,3.248233771030033
940,0.4896997775772239
942,3.269850699677664
944,0.8757233738836303
946,1.835094323646329
948,-1.5911823412967454
950,0.22756291881490442
952,1.4645588048001232
954,3.043621082643513
956,0.027056986644400358
958,-0.10659459427895207
960,-0.7023202398106899
962,-2.0064684457895754
964,-3.0020412361544704
966,-2.2327748367148637
968,-2.2451702637504916
970,3.087313082970052
972,-1.474238603491238
974,-1.3750943045639343
976,0.09099228775895851
978,-4.359327552662422
980,0.17173412192045567
982,0.5883557203648353
984,-0.6237451035931326
986,0.24693956783995888
988,-1.1733774690472267
990,1.089032408027303
992,0.5823660453244227
994,0.22070109661222787
996,-2.4283186811864717
998,-1.410528741235163
