wave,flux
336,859.1990707535907
338,1318.1620750152333
340,1935.3958794835696
342,2846.070775309393
344,4138.895383430285
346,5784.964304730642
348,7714.392343422558
350,9959.722037265517
352,12772.7808697165
354,16472.543067152033
356,20961.935626321974
358,26054.22256982271
360,32005.148162706657
362,38999.35502800596
364,46847.264919410074
366,55691.90426413793
368,66122.54837008164
370,78820.9971180146
372,94714.42707161051
374,115862.13033502852
376,146025.31876818018
378,189438.09579456277
380,248312.43505949166
382,321265.7037484136
384,403259.9286890234
386,487942.65471452655
388,571533.5686540643
390,658582.5132545154
392,762440.4149366723
394,893655.7023502338
396,1054623.0920501822
398,1237210.2804244966
400,1432239.0372770762
402,1629632.457416039
404,1823301.842849208
406,2012596.087020214
408,2205306.1265017935
410,2414974.6638786136
412,2656612.3439423037
414,2936341.6964372713
416,3254211.998039606
418,3600042.5849407054
420,3960861.8747499827
422,4327769.051067429
424,4702094.675537247
426,5072285.819982353
428,5412855.27758603
430,5694069.776330866
432,5884680.382343444
434,5989139.959150738
436,6032510.891926058
438,6041927.719360274
440,6041829.087377654
442,6041317.693874072
444,6041151.696412393
446,6041404.504663602
448,6041159.209718283
450,6041169.101974882
452,6041489.281020634
454,6041345.912869439
456,6041338.404592266
458,6041325.018782468
460,6041699.072508398
462,6041358.972525446
464,6041562.197530705
466,6041487.189890206
468,6041433.129579016
470,6041439.235938707
472,6041205.301078501
474,6041480.848494266
476,6041346.087584728
478,6041352.954406939
480,6041526.482957457
482,6040958.983800344
484,6041287.007554953
486,6041397.817366323
488,6041476.888575781
490,6040793.187961251
492,6041466.892781953
494,6041539.400785202
496,6041346.461340754
498,6040976.907869368
500,6041570.776013671
502,6041140.113775262
504,6041096.596244011
506,6041160.805022205
508,6041326.539273604
510,6040884.189523579
512,6041431.164674456
514,6040848.939986784
516,6041597.546625317
518,6041215.625920704
520,6041513.31579317
522,6041401.335398398
524,6041599.504581936
526,6041502.797662177
528,6041632.646736617
530,6041018.017738453
532,6041452.514197991
534,6041473.983649678
536,6041012.562953834
538,6041600.267383214
540,6041500.09437939
542,6041456.161318657
544,6041344.449985352
546,6041043.5981789585
548,6041282.519616308
550,6040956.216218969
552,6041038.205676052
554,6041529.298808104
556,6041478.482069189
558,6041467.498024193
560,6042030.967616905
562,6041452.372077768
564,6041396.989793394
566,6041516.641765641
568,6041289.061086576
570,6041841.723848296
572,6041739.53640081
574,6041149.743759466
576,6041327.80399535
578,6041441.924542337
580,6041163.801691519
582,6041480.19918994
584,6041742.649071274
586,6040973.253205224
588,6041585.683766203
590,6041497.884186822
592,6041767.783407133
594,6041963.653689467
596,6041609.656833117
598,6041769.209423457
600,6041372.5554598225
602,6041189.915206359
604,6041137.374746052
606,6041083.4146339
608,6041346.5707966825
610,6041222.475814281
612,6041435.777782241
614,6041930.254011458
616,6041729.8400502205
618,6040832.176880548
620,6041027.933090098
622,6042002.930124509
624,6042043.572597426
626,6042009.123372418
628,6041517.183555625
630,6040693.855130352
632,6040848.743764942
634,6040368.6286660405
636,6040109.871253164
638,6042257.62123113
640,6043009.84283043
642,6041960.095920918
644,6041402.80212572
646,6040912.492833042
648,6040621.994146816
650,6041471.284025655
652,6041708.954283138
654,6041397.690998731
656,6041151.209939674
658,6041511.430773056
660,6041551.262275713
662,6041377.486709479
664,6041484.48743943
666,6041443.750089353
668,6041107.991048773
670,6041563.760999665
672,6041267.2062764475
674,6041163.483843256
676,6041536.128915831
678,6041346.24345349
680,6041150.289956291
682,6041410.314774397
684,6041560.064687422
686,6041447.9187860545
688,6040955.81893969
690,6041315.875338955
692,6041350.307975556
694,6041850.281893436
696,6041497.367671758
698,6041199.302168769
700,6041453.64627868
702,6041828.693192877
704,6040860.42770877
706,6041675.622792104
708,6041571.681644926
710,6041346.454989626
712,6041546.234560798
714,6041858.824615336
716,6041142.5820534965
718,6041286.403162461
720,6041703.1207177285
722,6041807.585318082
724,6041329.8607438
726,6041296.890614847
728,6041527.288726995
730,6041723.792105585
732,6041192.330811199
734,6041150.1016538385
736,6041704.398114255
738,6041255.137810724
740,6041344.973276121
742,6041402.044472554
744,6041509.896928869
746,6041611.23472158
748,6041281.529689905
750,6041392.455248062
752,6040981.1977447625
754,6041295.389267499
756,6041239.4416478425
758,6041271.659960353
760,6041533.037164191
762,6033170.558480699
764,5997309.196911797
766,5919816.184365741
768,5789128.623488824
770,5591227.92157777
772,5331562.926099856
774,5030824.995786329
776,4699258.250554136
778,4346757.545140255
780,3987299.429810042
782,3631624.3336451664
784,3286378.269654552
786,2964560.482130975
788,2677357.907088312
790,2431812.978824052
792,2227005.630354121
794,2056991.6675400746
796,1912122.286436368
798,1783069.2196949078
800,1663500.214270693
802,1548744.6415391257
804,1440089.3704584274
806,1338355.7413583586
808,1246002.4351940232
810,1164641.9993123675
812,1094313.8934356393
814,1033315.1507154639
816,979276.3012057306
818,928884.3489745458
820,880151.1850921786
822,831067.2044299131
824,781134.7456778135
826,731197.4373941015
828,682133.9307999852
830,635157.065687494
832,590767.9318637582
834,549817.9262336656
836,511926.9827578021
838,476508.58827418834
840,442988.8091633684
842,410512.7161371145
844,378885.83903410326
846,347759.8550145639
848,317145.038704723
850,286997.5341464601
852,257814.11993689087
854,229635.74166079867
856,202883.51438950063
858,177548.2583061767
860,153963.78261275878
862,132580.8515415665
864,113288.53811543316
866,96239.40874515912
868,81413.00428997858
870,68826.20859127876
872,58133.754868965356
874,49160.33286656182
876,41666.7751322839
878,35497.06635140222
880,30295.018445045593
882,25695.68578759554
884,21591.37521759164
886,17852.922836174053
888,14389.809163301048
890,11160.697668091325
892,8122.388938503005
894,5540.658797514908
896,3560.8201047046186
898,2067.8082667675035
900,1036.1379326991748
902,389.7262820249188
904,91.05201843704549
906,33.85408597934234
908,10.175341117526877
910,0.4798427012002451
912,-3.482973111878331
914,2.393407046365594
916,-5.54246237681494
918,-0.29287613119402345
920,-2.3379566926154904
922,4.289920058427215
924,0.9442159283387628
926,-2.7336637591896857
928,1.0006701908683229
930,-1.3057717257606596
932,1.5404292547943992
934,4.001179039549514
936,-1.414773894536123
938,3.248233771030033
940,0.4896997775772239
942,3.269850699677664
944,0.8757233738836303
946,1.835094323646329
948,-1.5911823412967454
950,0.22756291881490442
952,1.4645588048001232
954,3.043621082643513
956,0.027056986644400358
958,-0.10659459427895207
960,-0.7023202398106899
962,-2.0064684457895754
964,-3.0020412361544704
966,-2.2327748367148637
968,-2.2451702637504916
970,3.087313082970052
972,-1.474238603491238
974,-1.3750943045639343
976,0.09099228775895851
978,-4.359327552662422
980,0.17173412192045567
982,0.5883557203648353
984,-0.6237451035931326
986,0.24693956783995888
988,-1.1733774690472267
990,1.089032408027303
992,0.5823660453244227
994,0.22070109661222787
996,-2.4283186811864717
998,-1.410528741235163
