wave,flux
336,135.16483543528796
338,202.6872402722697
340,375.7539375722408
342,648.5790575069238
344,981.3878829133224
346,1414.1321394773158
348,2008.819394674979
350,2755.9625714992803
352,3693.0333711199237
354,4843.546484517749
356,6217.920434114374
358,7810.791552436009
360,9722.47088776154
362,12024.699242451414
364,14730.731579959647
366,17954.350861950174
368,21900.30966898241
370,26683.253568371325
372,32570.455621263744
374,40071.85928864585
376,49999.27168967604
378,62552.89063481995
380,77077.88490494245
382,92474.18492628464
384,108512.55998288874
386,126491.51611424975
388,149311.7256201394
390,180903.15077820298
392,224322.64757373804
394,279234.21147480403
396,341859.903991083
398,407291.54792446934
400,473635.2619348752
402,542197.2975376808
404,616860.9221945687
406,700981.5202880636
408,796730.5792769922
410,903521.102504189
412,1018853.1792009507
414,1139661.9115169458
416,1264090.2786087354
418,1391259.6117840742
420,1522549.4333657534
422,1659396.557634002
424,1803922.9665678449
426,1957951.6697944032
428,2122365.6947692847
430,2297538.9636539393
432,2482156.2013944993
434,2676803.227506301
436,2883610.833035265
438,3106283.01775162
440,3348482.9652785663
442,3610614.2958317176
444,3889956.568297464
446,4180414.9887671843
448,4476068.196817783
450,4772701.18998421
452,5064067.291510358
454,5335054.773361827
456,5572650.089053504
458,5764180.35554945
460,5898145.158297523
462,5980085.512932462
464,6022225.676573483
466,6038218.152618432
468,6041540.217296953
470,6041708.543292256
472,6041475.725094421
474,6041707.001416118
476,6041678.246294081
478,6041683.50258683
480,6041135.656069317
482,6041782.115457996
484,6041464.122821646
486,6041384.746553227
488,6041408.317197492
490,6041664.952406742
492,6041284.248180094
494,6041810.2856541695
496,6040831.144113473
498,6041626.445906622
500,6041559.711651691
502,6041468.881726629
504,6041623.85722938
506,6041516.2745683035
508,6041517.865818475
510,6041419.372709693
512,6041296.588676732
514,6041400.36781953
516,6041147.636033165
518,6041309.397055804
520,6041757.94840779
522,6041287.2203661185
524,6041372.278546831
526,6041354.730720662
528,6041378.174362446
530,6041585.697316925
532,6041417.100212331
534,6041373.798925033
536,6042041.555816274
538,6041344.09166879
540,6041230.762310262
542,6041394.058184285
544,6042058.744919351
546,6041465.890145797
548,6041183.634501261
550,6041326.0302468445
552,6041444.746857545
554,6041310.205385904
556,6041232.082219938
558,6041279.152235782
560,6041227.135200442
562,6041541.941683176
564,6041345.93175563
566,6041262.79071378
568,6041565.503319038
570,6041161.953986693
572,6041162.782816061
574,6041288.426305355
576,6041756.270309505
578,6041453.964758034
580,6040835.864781341
582,6041292.359148286
584,6042018.926529323
586,6041460.690894271
588,6040934.980641192
590,6041210.614927728
592,6041529.260670908
594,6041308.810800092
596,6041121.906899872
598,6041504.839685727
600,6041484.307044828
602,6041320.095575844
604,6041429.28399494
606,6041582.316712943
608,6041380.064657627
610,6041323.02209394
612,6041337.0687109055
614,6041437.9615219645
616,6041575.436801707
618,6041240.097501878
620,6041680.815309052
622,6041909.299806085
624,6040630.074903581
626,6041628.774839237
628,6042580.098032462
630,6041753.760673911
632,6042059.205907777
634,6042134.694460483
636,6041466.463147989
638,6041336.047381994
640,6041902.31812534
642,6042620.492106054
644,6042626.166469751
646,6041301.393689751
648,6040112.858535933
650,6040755.895621821
652,6040952.620160333
654,6041398.074029224
656,6041149.206174092
658,6041511.301696808
660,6041551.258564665
662,6041377.486786845
664,6041484.487454433
666,6041443.750090397
668,6041107.99104882
670,6041563.760999665
672,6041267.206276448
674,6041163.483843256
676,6041536.128915831
678,6041346.24345349
680,6041150.289956291
682,6041410.314774397
684,6041560.064687422
686,6041447.9187860545
688,6040955.81893969
690,6041315.875338955
692,6041350.307975556
694,6041850.281893436
696,6041497.367671758
698,6041199.302168769
700,6041453.64627868
702,6041828.693192877
704,6040860.42770877
706,6041675.622792104
708,6041571.681644926
710,6041346.454989626
712,6041546.234560798
714,6041858.824615336
716,6041142.5820534965
718,6041286.403162461
720,6041703.1207177285
722,6041807.585318082
724,6041329.8607438
726,6041296.890614847
728,6041527.288726995
730,6041723.792105585
732,6041192.330811199
734,6041150.1016538385
736,6041704.398114255
738,6041255.137810724
740,6041344.973276121
742,6041402.044472554
744,6041509.896928869
746,6041611.23472158
748,6041281.529689905
750,6041392.455248062
752,6040981.1977447625
754,6041295.389267499
756,6041239.4416478425
758,6041271.659960353
760,6041533.037164191
762,6033170.558480699
764,5997309.196911797
766,5919816.184365741
768,5789128.623488824
770,5591227.92157777
772,5331562.926099856
774,5030824.995786329
776,4699258.250554136
778,4346757.545140255
780,3987299.429810042
782,3631624.3336451664
784,3286378.269654552
786,2964560.482130975
788,2677357.907088312
790,2431812.978824052
792,2227005.630354121
794,2056991.6675400746
796,1912122.286436368
798,1783069.2196949078
800,1663500.214270693
802,1548744.6415391257
804,1440089.3704584274
806,1338355.7413583586
808,1246002.4351940232
810,1164641.9993123675
812,1094313.8934356393
814,1033315.1507154639
816,979276.3012057306
818,928884.3489745458
820,880151.1850921786
822,831067.2044299131
824,781134.7456778135
826,731197.4373941015
828,682133.9307999852
830,635157.065687494
832,590767.9318637582
834,549817.9262336656
836,511926.9827578021
838,476508.58827418834
840,442988.8091633684
842,410512.7161371145
844,378885.83903410326
846,347759.8550145639
848,317145.038704723
850,286997.5341464601
852,257814.11993689087
854,229635.74166079867
856,202883.51438950063
858,177548.2583061767
860,153963.78261275878
862,132580.8515415665
864,113288.53811543316
866,96239.40874515912
868,81413.00428997858
870,68826.20859127876
872,58133.754868965356
874,49160.33286656182
876,41666.7751322839
878,35497.06635140222
880,30295.018445045593
882,25695.68578759554
884,21591.37521759164
886,17852.922836174053
888,14389.809163301048
890,11160.697668091325
892,8122.388938503005
894,5540.658797514908
896,3560.8201047046186
898,2067.8082667675035
900,1036.1379326991748
902,389.7262820249188
904,91.05201843704549
906,33.85408597934234
908,10.175341117526877
910,0.4798427012002451
912,-3.482973111878331
914,2.393407046365594
916,-5.54246237681494
918,-0.29287613119402345
920,-2.3379566926154904
922,4.289920058427215
924,0.9442159283387628
926,-2.7336637591896857
928,1.0006701908683229
930,-1.3057717257606596
932,1.5404292547943992
934,4.001179039549514
936,-1.414773894536123
938,3.248233771030033
940,0.4896997775772239
942,3.269850699677664
944,0.8757233738836303
946,1.835094323646329
948,-1.5911823412967454
950,0.22756291881490442
952,1.4645588048001232
954,3.043621082643513
956,0.027056986644400358
958,-0.10659459427895207
960,-0.7023202398106899
962,-2.0064684457895754
964,-3.0020412361544704
966,-2.2327748367148637
968,-2.2451702637504916
970,3.087313082970052
972,-1.474238603491238
974,-1.3750943045639343
976,0.09099228775895851
978,-4.359327552662422
980,0.17173412192045567
982,0.5883557203648353
984,-0.6237451035931326
986,0.24693956783995888
988,-1.1733774690472267
990,1.089032408027303
992,0.5823660453244227
994,0.22070109661222787
996,-2.4283186811864717
998,-1.410528741235163
