wave,flux
336,1536.4961439139645
338,2206.3557006124133
340,3131.473985745577
342,4593.261076792661
344,6356.440065126166
346,8445.678569254547
348,11190.848966537349
350,14569.802965933239
352,18183.241747917946
354,22017.966098682362
356,26553.74850841617
358,31919.858531377133
360,38042.95704860968
362,44850.90791278877
364,51980.229196069195
366,60100.47080699088
368,69889.51125233318
370,81623.66800106727
372,96982.06070781367
374,120617.95658160627
376,160608.05898201393
378,225053.82532772364
380,315162.9394484998
382,422676.5350115999
384,534704.7154004463
386,639873.9116904002
388,733896.856504289
390,828108.9965242107
392,954060.9191257429
394,1131013.5697290818
396,1352247.8364749285
398,1580878.556202016
400,1797427.7721307012
402,2002540.3135674612
404,2216219.635381516
406,2450296.012225288
408,2697674.6825219216
410,2927815.1394967977
412,3103580.5329360887
414,3206731.2726584123
416,3259542.48502049
418,3314060.596526293
420,3426254.61055543
422,3621586.413225916
424,3891152.4382402264
426,4202267.525244988
428,4515625.153065635
430,4795628.700878283
432,5013415.876466982
434,5156631.412693322
436,5230183.090948689
438,5255532.863290086
440,5256787.049315031
442,5251400.295030229
444,5245496.0215812735
446,5248113.20838413
448,5269107.594792656
450,5325231.763816997
452,5423609.337654558
454,5555197.884850782
456,5699960.924921585
458,5833224.862771071
460,5932294.04783058
462,5995066.184593291
464,6027902.269665073
466,6039664.773439011
468,6041579.0067468975
470,6041373.687166665
472,6041240.429133324
474,6041057.631822533
476,6041886.42058447
478,6041286.40353443
480,6041179.453131127
482,6041252.620850264
484,6041199.621189268
486,6041691.347157389
488,6041661.005168546
490,6040938.968450213
492,6041225.211531614
494,6041803.100690079
496,6041091.915330199
498,6041812.259995641
500,6041584.326585423
502,6041208.564231759
504,6041553.309283635
506,6041476.844431499
508,6041660.938956033
510,6041454.533978063
512,6041429.6158076655
514,6041247.482978546
516,6041394.021551272
518,6041072.188822981
520,6041407.698848012
522,6041389.398268063
524,6041514.968618305
526,6041554.262528895
528,6041615.200426427
530,6041697.750094611
532,6041270.592353106
534,6041253.7645327635
536,6041504.662036336
538,6041130.25988039
540,6041259.744270901
542,6041331.320620009
544,6041190.040567356
546,6041764.134731917
548,6041195.693528861
550,6041250.222467754
552,6041690.867784916
554,6041371.590915935
556,6041032.681485994
558,6041090.188414609
560,6041424.951050624
562,6041205.356479897
564,6041529.588384386
566,6041213.725409064
568,6041427.6931729885
570,6041209.301413286
572,6041511.7521002935
574,6041430.454677575
576,6041624.923057118
578,6041375.148210239
580,6041110.233557453
582,6041177.675904727
584,6041205.07478896
586,6041424.229983302
588,6041329.048490353
590,6041626.282310351
592,6041618.557549182
594,6041496.120838441
596,6041573.470833504
598,6041340.235294053
600,6041104.214731094
602,6041095.0677643055
604,6041038.229410249
606,6041027.319783841
608,6041316.361931344
610,6041040.358288443
612,6041096.264412423
614,6041450.9870927
616,6041298.231797236
618,6041160.161423639
620,6040949.745435628
622,6040798.994078019
624,6040910.724567028
626,6040717.835170096
628,6041199.538438648
630,6041983.182556731
632,6040829.618961408
634,6040710.524528891
636,6041458.319163244
638,6040247.1200530315
640,6040160.883493245
642,6040838.772278366
644,6040010.523912156
646,6040365.178800207
648,6042038.026749297
650,6042829.794749747
652,6041684.965150034
654,6040183.425561084
656,6041004.1543784775
658,6042375.884169112
660,6042490.016358223
662,6041384.077531784
664,6041485.765493455
666,6041443.838976789
668,6041107.995167399
670,6041563.761103198
672,6041267.206273551
674,6041163.48384267
676,6041536.12891578
678,6041346.243453486
680,6041150.28995629
682,6041410.314774397
684,6041560.064687422
686,6041447.9187860545
688,6040955.81893969
690,6041315.875338955
692,6041350.307975556
694,6041850.281893436
696,6041497.367671758
698,6041199.302168769
700,6041453.64627868
702,6041828.693192877
704,6040860.42770877
706,6041675.622792104
708,6041571.681644926
710,6041346.454989626
712,6041546.234560798
714,6041858.824615336
716,6041142.5820534965
718,6041286.403162461
720,6041703.1207177285
722,6041807.585318082
724,6041329.8607438
726,6041296.890614847
728,6041527.288726995
730,6041723.792105585
732,6041192.330811199
734,6041150.1016538385
736,6041704.398114255
738,6041255.137810724
740,6041344.973276121
742,6041402.044472554
744,6041509.896928869
746,6041611.23472158
748,6041281.529689905
750,6041392.455248062
752,6040981.1977447625
754,6041295.389267499
756,6041239.4416478425
758,6041271.659960353
760,6041533.037164191
762,6033170.558480699
764,5997309.196911797
766,5919816.184365741
768,5789128.623488824
770,5591227.92157777
772,5331562.926099856
774,5030824.995786329
776,4699258.250554136
778,4346757.545140255
780,3987299.429810042
782,3631624.3336451664
784,3286378.269654552
786,2964560.482130975
788,2677357.907088312
790,2431812.978824052
792,2227005.630354121
794,2056991.6675400746
796,1912122.286436368
798,1783069.2196949078
800,1663500.214270693
802,1548744.6415391257
804,1440089.3704584274
806,1338355.7413583586
808,1246002.4351940232
810,1164641.9993123675
812,1094313.8934356393
814,1033315.1507154639
816,979276.3012057306
818,928884.3489745458
820,880151.1850921786
822,831067.2044299131
824,781134.7456778135
826,731197.4373941015
828,682133.9307999852
830,635157.065687494
832,590767.9318637582
834,549817.9262336656
836,511926.9827578021
838,476508.58827418834
840,442988.8091633684
842,410512.7161371145
844,378885.83903410326
846,347759.8550145639
848,317145.038704723
850,286997.5341464601
852,257814.11993689087
854,229635.74166079867
856,202883.51438950063
858,177548.2583061767
860,153963.78261275878
862,132580.8515415665
864,113288.53811543316
866,96239.40874515912
868,81413.00428997858
870,68826.20859127876
872,58133.754868965356
874,49160.33286656182
876,41666.7751322839
878,35497.06635140222
880,30295.018445045593
882,25695.68578759554
884,21591.37521759164
886,17852.922836174053
888,14389.809163301048
890,11160.697668091325
892,8122.388938503005
894,5540.658797514908
896,3560.8201047046186
898,2067.8082667675035
900,1036.1379326991748
902,389.7262820249188
904,91.05201843704549
906,33.85408597934234
908,10.175341117526877
910,0.4798427012002451
912,-3.482973111878331
914,2.393407046365594
916,-5.54246237681494
918,-0.29287613119402345
920,-2.3379566926154904
922,4.289920058427215
924,0.9442159283387628
926,-2.7336637591896857
928,1.0006701908683229
930,-1.3057717257606596
932,1.5404292547943992
934,4.001179039549514
936,-1.414773894536123
938,3.248233771030033
940,0.4896997775772239
942,3.269850699677664
944,0.8757233738836303
946,1.835094323646329
948,-1.5911823412967454
950,0.22756291881490442
952,1.4645588048001232
954,3.043621082643513
956,0.027056986644400358
958,-0.10659459427895207
960,-0.7023202398106899
962,-2.0064684457895754
964,-3.0020412361544704
966,-2.2327748367148637
968,-2.2451702637504916
970,3.087313082970052
972,-1.474238603491238
974,-1.3750943045639343
976,0.09099228775895851
978,-4.359327552662422
980,0.17173412192045567
982,0.5883557203648353
984,-0.6237451035931326
986,0.24693956783995888
988,-1.1733774690472267
990,1.089032408027303
992,0.5823660453244227
994,0.22070109661222787
996,-2.4283186811864717
998,-1.410528741235163
