wave,flux
336,5592.181520627224
338,10747.627469829442
340,17570.15655651108
342,25873.749544589435
344,35695.23121909634
346,47274.82082342086
348,61476.800412455654
350,77214.3150062332
352,94878.74513504427
354,116822.17055053257
356,143776.62239718347
358,174557.82897591873
360,207059.963221784
362,241774.97036700146
364,279737.5692916298
366,319990.2440123427
368,364033.1786956109
370,415806.63862225367
372,478618.1591961563
374,561439.4588775719
376,688564.4487723333
378,896396.9568440522
380,1220922.3514466165
382,1685939.9318214322
384,2306875.2985023507
386,3086443.2061552834
388,3990532.108513816
390,4870343.816091362
392,5543511.7392613
394,5901744.321561371
396,6026723.621602406
398,6041760.748990121
400,6041549.9508501105
402,6041230.837403096
404,6041080.116350848
406,6041488.587520154
408,6041483.827854501
410,6041164.681024011
412,6041679.126537622
414,6041500.10601337
416,6041756.324718716
418,6041104.849980952
420,6040975.469295493
422,6041431.993357059
424,6041514.001946452
426,6041724.197336741
428,6041241.489510836
430,6041136.223595731
432,6041350.803538386
434,6040944.986249424
436,6041548.452431694
438,6041924.648767001
440,6041381.848855572
442,6041431.391414673
444,6041462.626564814
446,6041457.360015367
448,6041361.909907556
450,6041355.836766961
452,6041271.1619530525
454,6040951.958044077
456,6041232.410555004
458,6041363.032316557
460,6041652.973614915
462,6041152.094563927
464,6041426.161429738
466,6041677.232610863
468,6041662.2540768795
470,6041504.792057126
472,6041287.931361402
474,6041372.297108818
476,6041175.02271266
478,6041668.477454112
480,6041654.496269064
482,6041627.134925219
484,6041524.161022602
486,6041244.812890918
488,6041608.699885532
490,6041156.281738993
492,6041563.391305422
494,6041697.670500632
496,6041280.5648235595
498,6041257.53129292
500,6041275.718343352
502,6041819.262976241
504,6041468.516736803
506,6041220.62171361
508,6041447.864531577
510,6041209.032801775
512,6041163.073972214
514,6041358.303143359
516,6041460.361811905
518,6041618.043881218
520,6041425.322336566
522,6041307.328678209
524,6041774.695891573
526,6041456.886528459
528,6041234.687459319
530,6041588.184160841
532,6041738.181869641
534,6041469.020494013
536,6040999.069675936
538,6041130.973627613
540,6041533.7672912385
542,6041552.583421578
544,6041380.381569826
546,6040887.171128982
548,6041005.123694128
550,6041451.746154611
552,6041505.795978871
554,6041523.62366583
556,6041684.026373671
558,6041382.8636266
560,6041200.727238344
562,6041404.5115955975
564,6041791.917904258
566,6042033.846769465
568,6041600.882688207
570,6041340.957893944
572,6041163.669961408
574,6041572.636856297
576,6041389.961144829
578,6041273.281217724
580,6041472.006524528
582,6041619.635953143
584,6041521.649991203
586,6041246.009665427
588,6041607.179416213
590,6041144.565646891
592,6041126.281293675
594,6041373.135079568
596,6041232.38968838
598,6041298.094005167
600,6041221.0164629975
602,6041713.711588968
604,6041891.025545509
606,6041408.497582979
608,6041373.81678113
610,6041534.451542083
612,6041294.370222424
614,6041314.973312977
616,6041861.337617487
618,6040810.495591367
620,6040227.695834111
622,6041169.224287252
624,6042267.441934235
626,6042368.9071613485
628,6041913.546823122
630,6041940.927271251
632,6042706.933102412
634,6042034.282735228
636,6040493.964634742
638,6040869.543151981
640,6042274.723921883
642,6042849.981182985
644,6041912.584042028
646,6042303.540848192
648,6042736.47789276
650,6040700.124559005
652,6040975.964783639
654,6043465.868121544
656,6043568.361759245
658,6041742.22014936
660,6040431.551952155
662,6042008.396093667
664,6042824.857001047
666,6040211.682114975
668,6039486.800930886
670,6040634.4988095295
672,6039314.902158436
674,6038115.134172522
676,6039560.1916894745
678,6041074.002416583
680,6041467.120295944
682,6041422.970535938
684,6041338.235885954
686,6041449.587254798
688,6040955.933395808
690,6041315.88114081
692,6041350.30828486
694,6041850.281912345
696,6041497.367673183
698,6041199.302168897
700,6041453.646278692
702,6041828.693192878
704,6040860.427708771
706,6041675.622792104
708,6041571.681644926
710,6041346.454989626
712,6041546.234560798
714,6041858.824615336
716,6041142.5820534965
718,6041286.403162461
720,6041703.1207177285
722,6041807.585318082
724,6041329.8607438
726,6041296.890614847
728,6041527.288726995
730,6041723.792105585
732,6041192.330811199
734,6041150.1016538385
736,6041704.398114255
738,6041255.137810724
740,6041344.973276121
742,6041402.044472554
744,6041509.896928869
746,6041611.23472158
748,6041281.529689905
750,6041392.455248062
752,6040981.1977447625
754,6041295.389267499
756,6041239.4416478425
758,6041271.659960353
760,6041533.037164191
762,6033170.558480699
764,5997309.196911797
766,5919816.184365741
768,5789128.623488824
770,5591227.92157777
772,5331562.926099856
774,5030824.995786329
776,4699258.250554136
778,4346757.545140255
780,3987299.429810042
782,3631624.3336451664
784,3286378.269654552
786,2964560.482130975
788,2677357.907088312
790,2431812.978824052
792,2227005.630354121
794,2056991.6675400746
796,1912122.286436368
798,1783069.2196949078
800,1663500.214270693
802,1548744.6415391257
804,1440089.3704584274
806,1338355.7413583586
808,1246002.4351940232
810,1164641.9993123675
812,1094313.8934356393
814,1033315.1507154639
816,979276.3012057306
818,928884.3489745458
820,880151.1850921786
822,831067.2044299131
824,781134.7456778135
826,731197.4373941015
828,682133.9307999852
830,635157.065687494
832,590767.9318637582
834,549817.9262336656
836,511926.9827578021
838,476508.58827418834
840,442988.8091633684
842,410512.7161371145
844,378885.83903410326
846,347759.8550145639
848,317145.038704723
850,286997.5341464601
852,257814.11993689087
854,229635.74166079867
856,202883.51438950063
858,177548.2583061767
860,153963.78261275878
862,132580.8515415665
864,113288.53811543316
866,96239.40874515912
868,81413.00428997858
870,68826.20859127876
872,58133.754868965356
874,49160.33286656182
876,41666.7751322839
878,35497.06635140222
880,30295.018445045593
882,25695.68578759554
884,21591.37521759164
886,17852.922836174053
888,14389.809163301048
890,11160.697668091325
892,8122.388938503005
894,5540.658797514908
896,3560.8201047046186
898,2067.8082667675035
900,1036.1379326991748
902,389.7262820249188
904,91.05201843704549
906,33.85408597934234
908,10.175341117526877
910,0.4798427012002451
912,-3.482973111878331
914,2.393407046365594
916,-5.54246237681494
918,-0.29287613119402345
920,-2.3379566926154904
922,4.289920058427215
924,0.9442159283387628
926,-2.7336637591896857
928,1.0006701908683229
930,-1.3057717257606596
932,1.5404292547943992
934,4.001179039549514
936,-1.414773894536123
938,3.248233771030033
940,0.4896997775772239
942,3.269850699677664
944,0.8757233738836303
946,1.835094323646329
948,-1.5911823412967454
950,0.22756291881490442
952,1.4645588048001232
954,3.043621082643513
956,0.027056986644400358
958,-0.10659459427895207
960,-0.7023202398106899
962,-2.0064684457895754
964,-3.0020412361544704
966,-2.2327748367148637
968,-2.2451702637504916
970,3.087313082970052
972,-1.474238603491238
974,-1.3750943045639343
976,0.09099228775895851
978,-4.359327552662422
980,0.17173412192045567
982,0.5883557203648353
984,-0.6237451035931326
986,0.24693956783995888
988,-1.1733774690472267
990,1.089032408027303
992,0.5823660453244227
994,0.22070109661222787
996,-2.4283186811864717
998,-1.410528741235163
