wave,flux
336,2880.957959050374
338,4004.692968742291
340,5432.482633056093
342,7359.954031245947
344,10154.143911992558
346,13422.555975823674
348,16521.740500314707
350,20005.270116857053
352,24519.14154878691
354,29641.46655940811
356,34934.999426369744
358,40436.90696032994
360,46427.54669380128
362,53299.05773171412
364,61476.02015494436
366,71681.62820374181
368,85607.00618742262
370,106895.380603209
372,143848.14750155996
374,208176.87568885816
376,308212.897632455
378,439091.5648154522
380,582036.8367766672
382,714134.5181751176
384,823142.3304850417
386,914914.87080431
388,1006880.1219285993
390,1116859.2398323836
392,1259802.7041481403
394,1444578.660180902
396,1675305.2776245582
398,1943027.704976421
400,2219427.3849343616
402,2457602.5147822974
404,2612895.164310602
406,2675225.008893948
408,2680110.621751607
410,2687048.475333399
412,2738933.891863251
414,2833534.712421461
416,2938144.6177109
418,3019463.2473866655
420,3070888.6934056343
422,3115547.0421138476
424,3186241.5040393146
426,3307989.1890925723
428,3484839.496810788
430,3702106.5640200307
432,3934596.8928652527
434,4164229.3731550802
436,4385511.493693422
438,4610086.1243643705
440,4857020.199598266
442,5126899.005203627
444,5400196.262409655
446,5648595.651234452
448,5836960.151545682
450,5954993.058992579
452,6016581.695286026
454,6038553.005775164
456,6041952.843635497
458,6041478.705909043
460,6041144.179706798
462,6041207.365165135
464,6041872.295742692
466,6041421.024263443
468,6041230.826615677
470,6041313.518390956
472,6041861.5535077425
474,6040985.944238426
476,6041727.974589215
478,6041103.157687492
480,6041749.252365042
482,6041433.752506667
484,6041551.256311456
486,6041621.72390624
488,6041614.6714421
490,6041632.617432515
492,6041029.736001702
494,6041116.55988969
496,6041522.760487918
498,6041713.491188966
500,6041648.615859434
502,6040929.469450935
504,6041399.165399033
506,6041286.271269787
508,6041473.761178789
510,6041104.95739506
512,6041610.522517694
514,6041332.739163957
516,6041802.117239677
518,6041462.635895876
520,6041866.013406934
522,6041514.507254336
524,6041442.275125891
526,6041619.808933253
528,6041490.746504653
530,6041391.791864354
532,6041436.822523975
534,6041426.843980499
536,6041027.911137377
538,6041012.812912112
540,6041537.640641644
542,6041625.495875581
544,6041840.9481353145
546,6041225.578226067
548,6041135.914087216
550,6041342.048761614
552,6041578.464910901
554,6041440.656830518
556,6041385.335318551
558,6041859.799959153
560,6041377.633769097
562,6041297.091787939
564,6041748.152839475
566,6041658.718881535
568,6041285.745318019
570,6041392.200486773
572,6041807.517313508
574,6041399.3761865655
576,6041504.606928233
578,6041693.311765476
580,6041755.244493494
582,6041593.5053531015
584,6041215.371943014
586,6041388.352594564
588,6041513.03631974
590,6041406.595622496
592,6041846.452968823
594,6041886.028764424
596,6041371.325931561
598,6041556.5446755495
600,6041289.496296191
602,6041113.061117183
604,6041102.45886139
606,6041112.079192444
608,6041299.12032003
610,6041407.556822148
612,6041274.576672875
614,6041330.632265744
616,6041784.075186955
618,6041718.383633135
620,6041756.396837993
622,6041772.456401255
624,6041255.9319854975
626,6041530.398485531
628,6041479.675019111
630,6040810.240049934
632,6041415.080643754
634,6041438.530349954
636,6041118.441665716
638,6042261.957301632
640,6041870.668666441
642,6041076.263537713
644,6042633.073679225
646,6042633.867999276
648,6041594.371230834
650,6042392.892431794
652,6041954.087743896
654,6040217.918341083
656,6040134.706482995
658,6041373.336665591
660,6042393.606323446
662,6041685.29360451
664,6040791.070368867
666,6041071.608845532
668,6040876.9004434785
670,6041558.502224897
672,6041267.3533823835
674,6041163.513610367
676,6041536.131535425
678,6041346.243638093
680,6041150.289967878
682,6041410.314775069
684,6041560.064687459
686,6041447.918786056
688,6040955.818939688
690,6041315.875338955
692,6041350.307975556
694,6041850.281893436
696,6041497.367671758
698,6041199.302168769
700,6041453.64627868
702,6041828.693192877
704,6040860.42770877
706,6041675.622792104
708,6041571.681644926
710,6041346.454989626
712,6041546.234560798
714,6041858.824615336
716,6041142.5820534965
718,6041286.403162461
720,6041703.1207177285
722,6041807.585318082
724,6041329.8607438
726,6041296.890614847
728,6041527.288726995
730,6041723.792105585
732,6041192.330811199
734,6041150.1016538385
736,6041704.398114255
738,6041255.137810724
740,6041344.973276121
742,6041402.044472554
744,6041509.896928869
746,6041611.23472158
748,6041281.529689905
750,6041392.455248062
752,6040981.1977447625
754,6041295.389267499
756,6041239.4416478425
758,6041271.659960353
760,6041533.037164191
762,6033170.558480699
764,5997309.196911797
766,5919816.184365741
768,5789128.623488824
770,5591227.92157777
772,5331562.926099856
774,5030824.995786329
776,4699258.250554136
778,4346757.545140255
780,3987299.429810042
782,3631624.3336451664
784,3286378.269654552
786,2964560.482130975
788,2677357.907088312
790,2431812.978824052
792,2227005.630354121
794,2056991.6675400746
796,1912122.286436368
798,1783069.2196949078
800,1663500.214270693
802,1548744.6415391257
804,1440089.3704584274
806,1338355.7413583586
808,1246002.4351940232
810,1164641.9993123675
812,1094313.8934356393
814,1033315.1507154639
816,979276.3012057306
818,928884.3489745458
820,880151.1850921786
822,831067.2044299131
824,781134.7456778135
826,731197.4373941015
828,682133.9307999852
830,635157.065687494
832,590767.9318637582
834,549817.9262336656
836,511926.9827578021
838,476508.58827418834
840,442988.8091633684
842,410512.7161371145
844,378885.83903410326
846,347759.8550145639
848,317145.038704723
850,286997.5341464601
852,257814.11993689087
854,229635.74166079867
856,202883.51438950063
858,177548.2583061767
860,153963.78261275878
862,132580.8515415665
864,113288.53811543316
866,96239.40874515912
868,81413.00428997858
870,68826.20859127876
872,58133.754868965356
874,49160.33286656182
876,41666.7751322839
878,35497.06635140222
880,30295.018445045593
882,25695.68578759554
884,21591.37521759164
886,17852.922836174053
888,14389.809163301048
890,11160.697668091325
892,8122.388938503005
894,5540.658797514908
896,3560.8201047046186
898,2067.8082667675035
900,1036.1379326991748
902,389.7262820249188
904,91.05201843704549
906,33.85408597934234
908,10.175341117526877
910,0.4798427012002451
912,-3.482973111878331
914,2.393407046365594
916,-5.54246237681494
918,-0.29287613119402345
920,-2.3379566926154904
922,4.289920058427215
924,0.9442159283387628
926,-2.7336637591896857
928,1.0006701908683229
930,-1.3057717257606596
932,1.5404292547943992
934,4.001179039549514
936,-1.414773894536123
938,3.248233771030033
940,0.4896997775772239
942,3.269850699677664
944,0.8757233738836303
946,1.835094323646329
948,-1.5911823412967454
950,0.22756291881490442
952,1.4645588048001232
954,3.043621082643513
956,0.027056986644400358
958,-0.10659459427895207
960,-0.7023202398106899
962,-2.0064684457895754
964,-3.0020412361544704
966,-2.2327748367148637
968,-2.2451702637504916
970,3.087313082970052
972,-1.474238603491238
974,-1.3750943045639343
976,0.09099228775895851
978,-4.359327552662422
980,0.17173412192045567
982,0.5883557203648353
984,-0.6237451035931326
986,0.24693956783995888
988,-1.1733774690472267
990,1.089032408027303
992,0.5823660453244227
994,0.22070109661222787
996,-2.4283186811864717
998,-1.410528741235163
