wave,flux
336,0.7989785332677266
338,-1.95329398300512
340,-2.3397399609735214
342,1.5727039522903732
344,-0.2054634692705122
346,1.2925777546508066
348,-0.08285010822253673
350,-2.54863244937695
352,-2.448756310200195
354,-1.181829641351423
356,2.794262210386268
358,406.9341227699699
360,2082.461298305634
362,5308.633205381919
364,9423.640067468566
366,14266.165650165281
368,20249.380296233405
370,27472.05657165207
372,35724.2148275188
374,44947.066972263594
376,55065.34226677938
378,66023.25878445746
380,78259.70460473884
382,92267.84280936007
384,108777.36910304973
386,127835.87463416521
388,148942.9675375553
390,172260.54433488575
392,199136.32042405926
394,229494.51369938324
396,261519.9476495417
398,292309.95376916294
400,321588.5551683858
402,350236.89083429566
404,379640.52991959103
406,410978.5284610792
408,446275.03161404235
410,487692.9811434524
412,536130.4452890215
414,592727.6850857042
416,661625.0728368154
418,756840.0423580689
420,904856.7386668039
422,1144933.0443505878
424,1518595.7036221311
426,2053960.8735068846
428,2744985.216641285
430,3540568.3320270837
432,4334725.90948635
434,5023926.704082342
436,5532866.802279934
438,5835660.420916792
440,5983340.331102918
442,6034446.967457113
444,6041598.553746109
446,6041436.767432905
448,6041424.832949123
450,6041735.696423167
452,6041687.780591393
454,6041245.578097703
456,6041976.091397187
458,6041257.19510541
460,6041477.842224303
462,6041330.232819026
464,6041353.679611398
466,6041248.239900835
468,6041849.140290006
470,6041482.237077106
472,6041221.172333387
474,6041605.127842058
476,6041237.404727402
478,6041675.582751924
480,6041231.419875085
482,6041686.549739696
484,6041149.599705422
486,6041634.949471906
488,6040947.442795346
490,6041775.612533978
492,6041118.112265218
494,6041422.802565558
496,6041333.065409487
498,6041187.125395682
500,6041578.364076766
502,6040900.460303533
504,6041427.47641548
506,6041059.519692673
508,6041436.947789041
510,6041265.765001291
512,6041417.47924068
514,6041443.486869426
516,6041136.897901693
518,6041520.730959667
520,6041583.500592925
522,6041104.300068404
524,6041206.382754412
526,6041243.889954975
528,6041613.391679861
530,6041247.076726461
532,6041380.301028228
534,6041136.202734569
536,6040918.386753041
538,6041830.913548502
540,6041199.69428754
542,6041785.715753163
544,6041618.569174763
546,6040993.960334652
548,6041192.225400589
550,6041068.351560076
552,6041050.99616806
554,6041523.20537655
556,6041851.938924218
558,6041728.028233343
560,6041749.3033199785
562,6041433.688575894
564,6041543.519710389
566,6041588.672218058
568,6041508.542645851
570,6041385.090637424
572,6041385.372734818
574,6041672.095390314
576,6041478.26839811
578,6041736.090073828
580,6041602.30589555
582,6041332.273140746
584,6041667.773774003
586,6041355.7859813785
588,6041480.820817155
590,6041334.081039981
592,6041724.358256858
594,6042087.531932742
596,6041707.767307569
598,6041376.359369012
600,6041337.37612016
602,6041242.483958464
604,6041379.189768454
606,6041582.745544689
608,6041318.75656793
610,6041479.14290001
612,6041268.27007888
614,6041119.72471465
616,6041925.787287905
618,6042216.046384322
620,6041898.5039429655
622,6041607.28854525
624,6041859.585575728
626,6042492.158370027
628,6042473.7863704255
630,6041627.275211755
632,6041239.755460766
634,6041406.672083208
636,6041636.168726695
638,6041488.787711991
640,6041326.690348877
642,6041347.487856355
644,6041485.664006762
646,6041668.691656537
648,6041824.043662115
650,6041879.192879933
652,6041761.612166425
654,6041398.774378028
656,6041145.542439165
658,6041511.065690579
660,6041551.25177929
662,6041377.486928303
664,6041484.487481862
666,6041443.750092304
668,6041107.991048909
670,6041563.760999668
672,6041267.206276448
674,6041163.483843256
676,6041536.128915831
678,6041346.24345349
680,6041150.289956291
682,6041410.314774397
684,6041560.064687422
686,6041447.9187860545
688,6040955.81893969
690,6041315.875338955
692,6041350.307975556
694,6041850.281893436
696,6041497.367671758
698,6041199.302168769
700,6041453.64627868
702,6041828.693192877
704,6040860.42770877
706,6041675.622792104
708,6041571.681644926
710,6041346.454989626
712,6041546.234560798
714,6041858.824615336
716,6041142.5820534965
718,6041286.403162461
720,6041703.1207177285
722,6041807.585318082
724,6041329.8607438
726,6041296.890614847
728,6041527.288726995
730,6041723.792105585
732,6041192.330811199
734,6041150.1016538385
736,6041704.398114255
738,6041255.137810724
740,6041344.973276121
742,6041402.044472554
744,6041509.896928869
746,6041611.23472158
748,6041281.529689905
750,6041392.455248062
752,6040981.1977447625
754,6041295.389267499
756,6041239.4416478425
758,6041271.659960353
760,6041533.037164191
762,6033170.558480699
764,5997309.196911797
766,5919816.184365741
768,5789128.623488824
770,5591227.92157777
772,5331562.926099856
774,5030824.995786329
776,4699258.250554136
778,4346757.545140255
780,3987299.429810042
782,3631624.3336451664
784,3286378.269654552
786,2964560.482130975
788,2677357.907088312
790,2431812.978824052
792,2227005.630354121
794,2056991.6675400746
796,1912122.286436368
798,1783069.2196949078
800,1663500.214270693
802,1548744.6415391257
804,1440089.3704584274
806,1338355.7413583586
808,1246002.4351940232
810,1164641.9993123675
812,1094313.8934356393
814,1033315.1507154639
816,979276.3012057306
818,928884.3489745458
820,880151.1850921786
822,831067.2044299131
824,781134.7456778135
826,731197.4373941015
828,682133.9307999852
830,635157.065687494
832,590767.9318637582
834,549817.9262336656
836,511926.9827578021
838,476508.58827418834
840,442988.8091633684
842,410512.7161371145
844,378885.83903410326
846,347759.8550145639
848,317145.038704723
850,286997.5341464601
852,257814.11993689087
854,229635.74166079867
856,202883.51438950063
858,177548.2583061767
860,153963.78261275878
862,132580.8515415665
864,113288.53811543316
866,96239.40874515912
868,81413.00428997858
870,68826.20859127876
872,58133.754868965356
874,49160.33286656182
876,41666.7751322839
878,35497.06635140222
880,30295.018445045593
882,25695.68578759554
884,21591.37521759164
886,17852.922836174053
888,14389.809163301048
890,11160.697668091325
892,8122.388938503005
894,5540.658797514908
896,3560.8201047046186
898,2067.8082667675035
900,1036.1379326991748
902,389.7262820249188
904,91.05201843704549
906,33.85408597934234
908,10.175341117526877
910,0.4798427012002451
912,-3.482973111878331
914,2.393407046365594
916,-5.54246237681494
918,-0.29287613119402345
920,-2.3379566926154904
922,4.289920058427215
924,0.9442159283387628
926,-2.7336637591896857
928,1.0006701908683229
930,-1.3057717257606596
932,1.5404292547943992
934,4.001179039549514
936,-1.414773894536123
938,3.248233771030033
940,0.4896997775772239
942,3.269850699677664
944,0.8757233738836303
946,1.835094323646329
948,-1.5911823412967454
950,0.22756291881490442
952,1.4645588048001232
954,3.043621082643513
956,0.027056986644400358
958,-0.10659459427895207
960,-0.7023202398106899
962,-2.0064684457895754
964,-3.0020412361544704
966,-2.2327748367148637
968,-2.2451702637504916
970,3.087313082970052
972,-1.474238603491238
974,-1.3750943045639343
976,0.09099228775895851
978,-4.359327552662422
980,0.17173412192045567
982,0.5883557203648353
984,-0.6237451035931326
986,0.24693956783995888
988,-1.1733774690472267
990,1.089032408027303
992,0.5823660453244227
994,0.22070109661222787
996,-2.4283186811864717
998,-1.410528741235163
