wave,flux
336,-3.475966202935945
338,-0.17879223859144716
340,0.5235135843398453
342,-0.5258126003958007
344,-0.819961315496801
346,-1.733706187194437
348,-1.9450217441543995
350,-0.2091068449042264
352,4.151026966642614
354,-0.32817185449504954
356,3.610250577850705
358,-2.3211017464215304
360,14.526420387249697
362,120.06295650598992
364,439.85033209412813
366,1013.293307092019
368,1613.636553064357
370,2025.3386507786556
372,2260.8242811834693
374,2439.4578001436407
376,2991.248172753115
378,4298.3155777791
380,6422.399117858148
382,8472.264841100512
384,10575.580041503197
386,13359.722245973771
388,17812.08691080515
390,27961.19986670205
392,57263.8782602967
394,106544.58395907613
396,165925.43083770174
398,210455.61501237436
400,238557.92996558596
402,254966.52819438325
404,271420.4962882914
406,289072.53957055596
408,308204.64599495503
410,329358.7790624805
412,353139.7588537575
414,379520.0483486128
416,408038.5682529134
418,438706.6466157782
420,472068.1589135678
422,508188.0556152202
424,548228.9266090306
426,595417.1250848888
428,656239.333952545
430,734496.4075131805
432,828162.1583237613
434,928648.9848911762
436,1024994.9977436616
438,1108271.9154835858
440,1173048.9360692776
442,1216774.6232751242
444,1242854.1666779327
446,1259409.8960820087
448,1284837.6858179157
450,1342991.4315058095
452,1461944.828991069
454,1672267.14806745
456,1999863.180959324
458,2447453.413754178
460,2994479.6536695603
462,3596920.7299460894
464,4195156.764952681
466,4732693.662665322
468,5171388.254810383
470,5500863.22833271
472,5731564.8152627945
474,5877909.399248898
476,5962834.057785023
478,6009688.799189364
480,6032702.908231266
482,6041375.986782565
484,6041331.243495727
486,6041421.484507379
488,6041589.353681831
490,6041162.924758986
492,6041046.856128345
494,6041512.955094991
496,6041511.072825633
498,6041687.170213237
500,6041497.026374672
502,6040970.2440408645
504,6041438.439167159
506,6041422.126243917
508,6041266.910540583
510,6041302.656504714
512,6041770.860729161
514,6041622.8131193165
516,6041119.342396676
518,6041474.85898176
520,6041224.21963259
522,6041405.340335091
524,6041445.917060019
526,6041163.232818736
528,6041145.557276937
530,6041226.947954719
532,6041654.680723495
534,6041551.7863598075
536,6041679.163061449
538,6041560.310150209
540,6041505.548111205
542,6041489.873287591
544,6041818.651226595
546,6041422.266942689
548,6041554.040690311
550,6041394.683606584
552,6041069.080601896
554,6041165.02812336
556,6041815.878717622
558,6041460.104946601
560,6041266.881910209
562,6041654.355009325
564,6041685.188363933
566,6041617.739684497
568,6041023.54250667
570,6041218.667445653
572,6041522.079937819
574,6041251.03819341
576,6040884.932626317
578,6041457.653833611
580,6041648.110328279
582,6041307.892706314
584,6041539.855427267
586,6041690.103613653
588,6041716.524549253
590,6041459.532652846
592,6041690.790349554
594,6041621.731214386
596,6041190.2275884105
598,6041530.753480722
600,6041336.876234124
602,6041342.079620556
604,6041687.194163243
606,6041762.537149159
608,6041411.956798884
610,6041384.866067415
612,6041360.693019629
614,6041209.650040779
616,6041117.257812629
618,6040924.40645331
620,6041472.457960923
622,6042065.553339699
624,6041370.066984549
626,6040803.791217375
628,6041362.9333593305
630,6042413.182714485
632,6042165.149320181
634,6041308.0071052555
636,6040951.193197628
638,6041479.753043675
640,6041997.12906487
642,6042101.927318321
644,6042005.156978797
646,6041950.122217706
648,6041911.329963273
650,6041713.779093104
652,6041378.244575325
654,6041174.616936695
656,6041140.342056624
658,6041510.730698366
660,6041551.242147989
662,6041377.487129089
664,6041484.487520799
666,6041443.750095012
668,6041107.9910490345
670,6041563.760999671
672,6041267.206276448
674,6041163.483843256
676,6041536.128915831
678,6041346.24345349
680,6041150.289956291
682,6041410.314774397
684,6041560.064687422
686,6041447.9187860545
688,6040955.81893969
690,6041315.875338955
692,6041350.307975556
694,6041850.281893436
696,6041497.367671758
698,6041199.302168769
700,6041453.64627868
702,6041828.693192877
704,6040860.42770877
706,6041675.622792104
708,6041571.681644926
710,6041346.454989626
712,6041546.234560798
714,6041858.824615336
716,6041142.5820534965
718,6041286.403162461
720,6041703.1207177285
722,6041807.585318082
724,6041329.8607438
726,6041296.890614847
728,6041527.288726995
730,6041723.792105585
732,6041192.330811199
734,6041150.1016538385
736,6041704.398114255
738,6041255.137810724
740,6041344.973276121
742,6041402.044472554
744,6041509.896928869
746,6041611.23472158
748,6041281.529689905
750,6041392.455248062
752,6040981.1977447625
754,6041295.389267499
756,6041239.4416478425
758,6041271.659960353
760,6041533.037164191
762,6033170.558480699
764,5997309.196911797
766,5919816.184365741
768,5789128.623488824
770,5591227.92157777
772,5331562.926099856
774,5030824.995786329
776,4699258.250554136
778,4346757.545140255
780,3987299.429810042
782,3631624.3336451664
784,3286378.269654552
786,2964560.482130975
788,2677357.907088312
790,2431812.978824052
792,2227005.630354121
794,2056991.6675400746
796,1912122.286436368
798,1783069.2196949078
800,1663500.214270693
802,1548744.6415391257
804,1440089.3704584274
806,1338355.7413583586
808,1246002.4351940232
810,1164641.9993123675
812,1094313.8934356393
814,1033315.1507154639
816,979276.3012057306
818,928884.3489745458
820,880151.1850921786
822,831067.2044299131
824,781134.7456778135
826,731197.4373941015
828,682133.9307999852
830,635157.065687494
832,590767.9318637582
834,549817.9262336656
836,511926.9827578021
838,476508.58827418834
840,442988.8091633684
842,410512.7161371145
844,378885.83903410326
846,347759.8550145639
848,317145.038704723
850,286997.5341464601
852,257814.11993689087
854,229635.74166079867
856,202883.51438950063
858,177548.2583061767
860,153963.78261275878
862,132580.8515415665
864,113288.53811543316
866,96239.40874515912
868,81413.00428997858
870,68826.20859127876
872,58133.754868965356
874,49160.33286656182
876,41666.7751322839
878,35497.06635140222
880,30295.018445045593
882,25695.68578759554
884,21591.37521759164
886,17852.922836174053
888,14389.809163301048
890,11160.697668091325
892,8122.388938503005
894,5540.658797514908
896,3560.8201047046186
898,2067.8082667675035
900,1036.1379326991748
902,389.7262820249188
904,91.05201843704549
906,33.85408597934234
908,10.175341117526877
910,0.4798427012002451
912,-3.482973111878331
914,2.393407046365594
916,-5.54246237681494
918,-0.29287613119402345
920,-2.3379566926154904
922,4.289920058427215
924,0.9442159283387628
926,-2.7336637591896857
928,1.0006701908683229
930,-1.3057717257606596
932,1.5404292547943992
934,4.001179039549514
936,-1.414773894536123
938,3.248233771030033
940,0.4896997775772239
942,3.269850699677664
944,0.8757233738836303
946,1.835094323646329
948,-1.5911823412967454
950,0.22756291881490442
952,1.4645588048001232
954,3.043621082643513
956,0.027056986644400358
958,-0.10659459427895207
960,-0.7023202398106899
962,-2.0064684457895754
964,-3.0020412361544704
966,-2.2327748367148637
968,-2.2451702637504916
970,3.087313082970052
972,-1.474238603491238
974,-1.3750943045639343
976,0.09099228775895851
978,-4.359327552662422
980,0.17173412192045567
982,0.5883557203648353
984,-0.6237451035931326
986,0.24693956783995888
988,-1.1733774690472267
990,1.089032408027303
992,0.5823660453244227
994,0.22070109661222787
996,-2.4283186811864717
998,-1.410528741235163
