wave,flux
336,0.2736763673104513
338,1.6989117853398736
340,3.7396765905791174
342,0.9648824857720776
344,-2.6169629494102624
346,-0.14220761071756782
348,0.34929788867277495
350,2.1611813057622298
352,-1.3482615230298771
354,1.0534151684209996
356,10.366423754699698
358,600.3676296764086
360,2789.103360630937
362,6593.285862917767
364,11067.7191484268
366,16137.752404684785
368,22258.819091221638
370,28911.451363867916
372,35609.07111102828
374,42591.12849033114
376,50425.10579821171
378,59680.611248491856
380,70689.39737355325
382,83603.4074745768
384,98607.16399971448
386,115683.68526276301
388,134082.73844134327
390,153640.85151121204
392,174709.2831057235
394,197147.34062966018
396,219571.9543704625
398,241135.47230210667
400,262368.7416345801
402,284109.5031443306
404,306980.3140813193
406,332163.77581785625
408,362163.94426771207
410,399373.7102196743
412,444835.474541158
414,500220.2371986688
416,571187.6622291392
418,674780.6616843482
420,844741.8461269933
422,1126402.3298988454
424,1566657.6953802516
426,2188189.6312739737
428,2967493.127588873
430,3819258.521120401
432,4619449.260390317
434,5263740.999017969
436,5691457.209998813
438,5920735.73579692
440,6016657.02042991
442,6040685.352555426
444,6041564.626561606
446,6041399.996404458
448,6041831.7077164315
450,6041401.934601166
452,6040952.975684282
454,6041262.109150371
456,6041401.86481882
458,6041374.900794408
460,6041530.381404302
462,6041454.731527063
464,6041390.597371761
466,6041309.543834898
468,6041448.947541238
470,6041131.81179264
472,6041101.762682804
474,6041900.032209031
476,6041807.756771019
478,6040953.192865985
480,6041528.753274929
482,6041198.792409101
484,6041938.6843378665
486,6041180.645622543
488,6041764.1518075615
490,6041426.026276151
492,6041761.883854641
494,6041891.062243599
496,6041399.881201029
498,6041281.57054135
500,6041397.865220178
502,6041568.428836555
504,6041312.465373511
506,6041439.416550448
508,6041354.120973429
510,6041577.836096035
512,6041788.583799615
514,6041545.324070027
516,6041535.555195773
518,6041228.093844319
520,6041297.106023084
522,6041554.893891094
524,6041475.787797999
526,6041690.837083326
528,6041674.944598255
530,6041657.583531137
532,6041133.038839434
534,6041267.256315072
536,6041696.792727116
538,6041499.128119409
540,6041126.078306395
542,6041059.605535903
544,6041396.679372214
546,6041486.09472247
548,6041590.897611909
550,6041201.452408178
552,6041266.845782338
554,6041500.547308405
556,6041343.093403916
558,6041945.412787956
560,6041661.209940687
562,6041511.656378473
564,6041477.577216215
566,6041406.176084632
568,6041398.689258555
570,6041413.214849347
572,6040704.65406138
574,6041386.336087905
576,6041730.6732967105
578,6041513.012360064
580,6041735.796051683
582,6041548.3383462895
584,6040885.456809788
586,6041375.303793864
588,6041569.18492296
590,6041421.536187977
592,6041628.122841929
594,6041572.107842016
596,6041169.582086539
598,6041405.211778654
600,6041629.537646121
602,6041596.753526222
604,6041554.947768905
606,6041672.619635237
608,6041795.731328254
610,6041747.97167968
612,6041475.209775222
614,6041028.282192721
616,6040738.203259137
618,6041199.278820221
620,6041868.675310997
622,6042324.741543534
624,6042556.013981974
626,6042400.020071982
628,6042289.435579241
630,6042557.2416423205
632,6042766.559773845
634,6041661.020759999
636,6040351.197197562
638,6041123.364600183
640,6042002.852722433
642,6041664.75174477
644,6040470.866006002
646,6040011.312417347
648,6040150.631592769
650,6040818.5837674
652,6041494.123880121
654,6041382.382589751
656,6041243.224431362
658,6041517.358055894
660,6041551.432689985
662,6041377.483156791
664,6041484.486750511
666,6041443.75004144
668,6041107.991046553
670,6041563.760999609
672,6041267.20627645
674,6041163.483843257
676,6041536.128915831
678,6041346.24345349
680,6041150.289956291
682,6041410.314774397
684,6041560.064687422
686,6041447.9187860545
688,6040955.81893969
690,6041315.875338955
692,6041350.307975556
694,6041850.281893436
696,6041497.367671758
698,6041199.302168769
700,6041453.64627868
702,6041828.693192877
704,6040860.42770877
706,6041675.622792104
708,6041571.681644926
710,6041346.454989626
712,6041546.234560798
714,6041858.824615336
716,6041142.5820534965
718,6041286.403162461
720,6041703.1207177285
722,6041807.585318082
724,6041329.8607438
726,6041296.890614847
728,6041527.288726995
730,6041723.792105585
732,6041192.330811199
734,6041150.1016538385
736,6041704.398114255
738,6041255.137810724
740,6041344.973276121
742,6041402.044472554
744,6041509.896928869
746,6041611.23472158
748,6041281.529689905
750,6041392.455248062
752,6040981.1977447625
754,6041295.389267499
756,6041239.4416478425
758,6041271.659960353
760,6041533.037164191
762,6033170.558480699
764,5997309.196911797
766,5919816.184365741
768,5789128.623488824
770,5591227.92157777
772,5331562.926099856
774,5030824.995786329
776,4699258.250554136
778,4346757.545140255
780,3987299.429810042
782,3631624.3336451664
784,3286378.269654552
786,2964560.482130975
788,2677357.907088312
790,2431812.978824052
792,2227005.630354121
794,2056991.6675400746
796,1912122.286436368
798,1783069.2196949078
800,1663500.214270693
802,1548744.6415391257
804,1440089.3704584274
806,1338355.7413583586
808,1246002.4351940232
810,1164641.9993123675
812,1094313.8934356393
814,1033315.1507154639
816,979276.3012057306
818,928884.3489745458
820,880151.1850921786
822,831067.2044299131
824,781134.7456778135
826,731197.4373941015
828,682133.9307999852
830,635157.065687494
832,590767.9318637582
834,549817.9262336656
836,511926.9827578021
838,476508.58827418834
840,442988.8091633684
842,410512.7161371145
844,378885.83903410326
846,347759.8550145639
848,317145.038704723
850,286997.5341464601
852,257814.11993689087
854,229635.74166079867
856,202883.51438950063
858,177548.2583061767
860,153963.78261275878
862,132580.8515415665
864,113288.53811543316
866,96239.40874515912
868,81413.00428997858
870,68826.20859127876
872,58133.754868965356
874,49160.33286656182
876,41666.7751322839
878,35497.06635140222
880,30295.018445045593
882,25695.68578759554
884,21591.37521759164
886,17852.922836174053
888,14389.809163301048
890,11160.697668091325
892,8122.388938503005
894,5540.658797514908
896,3560.8201047046186
898,2067.8082667675035
900,1036.1379326991748
902,389.7262820249188
904,91.05201843704549
906,33.85408597934234
908,10.175341117526877
910,0.4798427012002451
912,-3.482973111878331
914,2.393407046365594
916,-5.54246237681494
918,-0.29287613119402345
920,-2.3379566926154904
922,4.289920058427215
924,0.9442159283387628
926,-2.7336637591896857
928,1.0006701908683229
930,-1.3057717257606596
932,1.5404292547943992
934,4.001179039549514
936,-1.414773894536123
938,3.248233771030033
940,0.4896997775772239
942,3.269850699677664
944,0.8757233738836303
946,1.835094323646329
948,-1.5911823412967454
950,0.22756291881490442
952,1.4645588048001232
954,3.043621082643513
956,0.027056986644400358
958,-0.10659459427895207
960,-0.7023202398106899
962,-2.0064684457895754
964,-3.0020412361544704
966,-2.2327748367148637
968,-2.2451702637504916
970,3.087313082970052
972,-1.474238603491238
974,-1.3750943045639343
976,0.09099228775895851
978,-4.359327552662422
980,0.17173412192045567
982,0.5883557203648353
984,-0.6237451035931326
986,0.24693956783995888
988,-1.1733774690472267
990,1.089032408027303
992,0.5823660453244227
994,0.22070109661222787
996,-2.4283186811864717
998,-1.410528741235163
