wave,flux
336,464561.9820533581
338,632544.7496227605
340,748565.6687275638
342,764758.8537225891
344,735872.4492878339
346,717674.5056555307
348,694140.3912677885
350,663814.8436018483
352,675667.5245553534
354,743781.4577638949
356,830304.7635145532
358,925160.1472723606
360,1058035.722726079
362,1238124.4797771107
364,1437537.4018145492
366,1624998.6908500202
368,1777065.27694641
370,1849589.8136086103
372,1787966.6950779054
374,1599827.6623679174
376,1379055.794017607
378,1233675.115879002
380,1209097.250609995
382,1288079.7893624513
384,1428021.5401491828
386,1581758.0013121986
388,1707514.1075004472
390,1785886.3186935605
392,1829882.754080492
394,1868865.1726389574
396,1928404.3542324489
398,2023835.300938921
400,2168848.135022239
402,2367761.8804760696
404,2609181.524809193
406,2864843.8772287313
408,3100921.823261449
410,3293268.8128227764
412,3429932.060957712
414,3508980.6125254636
416,3535528.070828191
418,3519464.0250495346
420,3480178.4528985736
422,3445158.574861354
424,3443633.809256069
426,3497571.549527247
428,3608123.2161575058
430,3749676.3873347193
432,3883120.568979374
434,3976973.897959192
436,4026343.2777418043
438,4060981.532871744
440,4131208.9269415266
442,4290347.419216381
444,4557142.878466659
446,4899792.5080505
448,5266385.429253562
450,5592419.690463077
452,5822088.110930285
454,5959490.137514562
456,6023781.926260673
458,6041352.411335142
460,6041484.095441593
462,6041620.920500033
464,6041399.831328755
466,6041223.232969748
468,6041181.87853865
470,6041662.827444378
472,6041257.72971126
474,6041318.458329944
476,6041498.518991189
478,6041747.857538062
480,6040966.195335225
482,6041339.66838127
484,6041642.166741003
486,6041280.507819417
488,6041049.332978243
490,6041774.382498694
492,6041117.420117335
494,6041986.3518313095
496,6041395.129338005
498,6041482.923512095
500,6041187.801022859
502,6041465.989981169
504,6041665.758536177
506,6041269.468941466
508,6041400.441161185
510,6041651.056656501
512,6041436.786322495
514,6041326.418292442
516,6041690.45565202
518,6041578.10133174
520,6041463.2612359375
522,6041610.5694873
524,6041191.914915136
526,6040846.651767958
528,6041469.304877932
530,6041333.173576372
532,6041102.004199311
534,6041606.205338938
536,6041957.462229045
538,6041469.188203966
540,6041417.4201362
542,6040862.658310784
544,6041930.455239816
546,6041456.30391078
548,6041332.575437653
550,6041410.7219367735
552,6041213.984886435
554,6041034.491875342
556,6041062.3505719025
558,6041263.908306304
560,6041240.35077061
562,6041313.670908173
564,6041582.296143369
566,6041313.154823268
568,6041852.696812493
570,6041770.130289236
572,6041666.178717952
574,6041312.976073135
576,6041161.031255955
578,6041112.719079368
580,6041114.294435985
582,6041401.821593911
584,6041621.794478721
586,6041440.109547957
588,6041609.47443621
590,6041156.691188732
592,6041183.899497371
594,6041533.434077161
596,6041458.919688984
598,6041455.366097874
600,6041758.234659362
602,6041582.034589472
604,6041293.223278833
606,6041237.56185121
608,6041208.793232859
610,6041811.8722859025
612,6041774.261391253
614,6041392.153422207
616,6041686.505554663
618,6041351.817484533
620,6041329.090437341
622,6041915.684291994
624,6042233.834290233
626,6042172.0619188445
628,6042424.267752811
630,6042737.041554535
632,6041751.796158937
634,6041203.796982353
636,6041813.133122549
638,6042228.883135209
640,6040728.870986308
642,6039638.5428867135
644,6041804.329528925
646,6042567.121455899
648,6041270.267265466
650,6040756.653609143
652,6041766.0718402965
654,6041397.7145438045
656,6041151.086767208
658,6041511.422838676
660,6041551.2620475935
662,6041377.4867142355
664,6041484.487440351
666,6041443.750089417
668,6041107.991048775
670,6041563.760999665
672,6041267.2062764475
674,6041163.483843256
676,6041536.128915831
678,6041346.24345349
680,6041150.289956291
682,6041410.314774397
684,6041560.064687422
686,6041447.9187860545
688,6040955.81893969
690,6041315.875338955
692,6041350.307975556
694,6041850.281893436
696,6041497.367671758
698,6041199.302168769
700,6041453.64627868
702,6041828.693192877
704,6040860.42770877
706,6041675.622792104
708,6041571.681644926
710,6041346.454989626
712,6041546.234560798
714,6041858.824615336
716,6041142.5820534965
718,6041286.403162461
720,6041703.1207177285
722,6041807.585318082
724,6041329.8607438
726,6041296.890614847
728,6041527.288726995
730,6041723.792105585
732,6041192.330811199
734,6041150.1016538385
736,6041704.398114255
738,6041255.137810724
740,6041344.973276121
742,6041402.044472554
744,6041509.896928869
746,6041611.23472158
748,6041281.529689905
750,6041392.455248062
752,6040981.1977447625
754,6041295.389267499
756,6041239.4416478425
758,6041271.659960353
760,6041533.037164191
762,6033170.558480699
764,5997309.196911797
766,5919816.184365741
768,5789128.623488824
770,5591227.92157777
772,5331562.926099856
774,5030824.995786329
776,4699258.250554136
778,4346757.545140255
780,3987299.429810042
782,3631624.3336451664
784,3286378.269654552
786,2964560.482130975
788,2677357.907088312
790,2431812.978824052
792,2227005.630354121
794,2056991.6675400746
796,1912122.286436368
798,1783069.2196949078
800,1663500.214270693
802,1548744.6415391257
804,1440089.3704584274
806,1338355.7413583586
808,1246002.4351940232
810,1164641.9993123675
812,1094313.8934356393
814,1033315.1507154639
816,979276.3012057306
818,928884.3489745458
820,880151.1850921786
822,831067.2044299131
824,781134.7456778135
826,731197.4373941015
828,682133.9307999852
830,635157.065687494
832,590767.9318637582
834,549817.9262336656
836,511926.9827578021
838,476508.58827418834
840,442988.8091633684
842,410512.7161371145
844,378885.83903410326
846,347759.8550145639
848,317145.038704723
850,286997.5341464601
852,257814.11993689087
854,229635.74166079867
856,202883.51438950063
858,177548.2583061767
860,153963.78261275878
862,132580.8515415665
864,113288.53811543316
866,96239.40874515912
868,81413.00428997858
870,68826.20859127876
872,58133.754868965356
874,49160.33286656182
876,41666.7751322839
878,35497.06635140222
880,30295.018445045593
882,25695.68578759554
884,21591.37521759164
886,17852.922836174053
888,14389.809163301048
890,11160.697668091325
892,8122.388938503005
894,5540.658797514908
896,3560.8201047046186
898,2067.8082667675035
900,1036.1379326991748
902,389.7262820249188
904,91.05201843704549
906,33.85408597934234
908,10.175341117526877
910,0.4798427012002451
912,-3.482973111878331
914,2.393407046365594
916,-5.54246237681494
918,-0.29287613119402345
920,-2.3379566926154904
922,4.289920058427215
924,0.9442159283387628
926,-2.7336637591896857
928,1.0006701908683229
930,-1.3057717257606596
932,1.5404292547943992
934,4.001179039549514
936,-1.414773894536123
938,3.248233771030033
940,0.4896997775772239
942,3.269850699677664
944,0.8757233738836303
946,1.835094323646329
948,-1.5911823412967454
950,0.22756291881490442
952,1.4645588048001232
954,3.043621082643513
956,0.027056986644400358
958,-0.10659459427895207
960,-0.7023202398106899
962,-2.0064684457895754
964,-3.0020412361544704
966,-2.2327748367148637
968,-2.2451702637504916
970,3.087313082970052
972,-1.474238603491238
974,-1.3750943045639343
976,0.09099228775895851
978,-4.359327552662422
980,0.17173412192045567
982,0.5883557203648353
984,-0.6237451035931326
986,0.24693956783995888
988,-1.1733774690472267
990,1.089032408027303
992,0.5823660453244227
994,0.22070109661222787
996,-2.4283186811864717
998,-1.410528741235163
