wave,flux
336,4.615287572292832
338,2.4023149195547076
340,2.228718412842387
342,9.58734057958303
344,6.7381384480967705
346,11.454383941013585
348,36.7062581198859
350,57.12812344672928
352,80.17537506974791
354,94.88976917520976
356,108.51840245475731
358,132.1922409633084
360,157.78649972904103
362,193.14495115356118
364,250.98109951926781
366,314.2281440210283
368,436.2848383425664
370,694.7707942593835
372,1182.5734005822499
374,1967.926737726875
376,2983.7241069523398
378,4215.184707783228
380,5671.828188930332
382,7400.123420095814
384,9426.415146932643
386,11777.050901870592
388,14530.228436838932
390,17983.40018278307
392,22834.16549346534
394,29274.290790128794
396,37031.31056184816
398,45319.609614293644
400,54182.637402890046
402,64066.788930135386
404,75698.51046504188
406,89129.17577907395
408,103785.17774370557
410,118670.85176460457
412,133054.04853870158
414,146833.425195949
416,160724.80829838302
418,175588.57604065933
420,192344.71214781873
422,211611.14993902456
424,234047.00911979936
426,260180.73290784657
428,290407.28109509737
430,324978.42735128873
432,363786.5925356023
434,406900.9117328116
436,455050.5750682538
438,510761.0294405328
440,577996.5489744557
442,661439.3360693768
444,766058.2405188031
446,895207.0862491302
448,1049150.740303579
450,1225716.7603601175
452,1419741.0418885902
454,1624946.6903461902
456,1835187.204851411
458,2045255.7721884795
460,2253436.1842080597
462,2460638.150516476
464,2668333.0665926896
466,2883437.645266263
468,3111128.542221552
470,3358014.2455580127
472,3629468.575998052
474,3930181.3125085365
476,4259621.351690062
478,4603763.555831732
480,4942921.340608126
482,5258923.299306316
484,5531877.338816397
486,5740433.450885448
488,5883084.552687445
490,5972049.129038672
492,6020032.2286046995
494,6038493.125786579
496,6041472.35917397
498,6041346.250786565
500,6041280.937643797
502,6041508.012718865
504,6041337.367700767
506,6041286.936765708
508,6041115.163896518
510,6041696.921924266
512,6041284.986374299
514,6041551.914088833
516,6041260.272185194
518,6041493.032225623
520,6041454.546333996
522,6041223.648622647
524,6041461.134757082
526,6041575.498061344
528,6041646.6955947485
530,6041267.478491313
532,6041476.727577956
534,6041731.253870051
536,6041064.616593507
538,6041854.316859411
540,6041660.3086798
542,6041076.728677888
544,6041241.868061522
546,6041658.611303883
548,6041534.170335854
550,6041388.885815354
552,6041077.308956573
554,6041097.602458395
556,6041135.773960386
558,6041497.963704727
560,6041327.36113518
562,6041310.233782363
564,6041346.68023206
566,6041343.996292102
568,6041689.910721873
570,6041490.153528531
572,6041354.584225451
574,6041444.8931629695
576,6041126.810330747
578,6041594.924089353
580,6041757.119563774
582,6041312.968870006
584,6041342.469672681
586,6041272.172066976
588,6041417.731930224
590,6041421.731187787
592,6041279.921844903
594,6041319.348297754
596,6041474.241269317
598,6041468.727687531
600,6041615.9591742605
602,6041526.61899805
604,6041430.207781112
606,6041523.940168762
608,6041458.873592354
610,6041200.292045377
612,6041409.060709704
614,6041777.533406699
616,6041565.2797873225
618,6041246.6827512
620,6040837.489649557
622,6040892.919225495
624,6041746.603437085
626,6041722.887275817
628,6041337.999540197
630,6041176.872607136
632,6040576.6573678255
634,6040559.513129955
636,6041154.5851386385
638,6041285.184410837
640,6041037.106188066
642,6040611.365272478
644,6040100.0287980735
646,6039592.261035815
648,6039177.22625666
650,6038944.088731571
652,6038982.012731508
654,6039380.162527432
656,6040227.702390302
658,6041564.444901462
660,6041552.78647566
662,6041377.454933929
664,6041484.481277698
666,6041443.749660811
668,6041107.991028916
670,6041563.7609991655
672,6041267.206276462
674,6041163.4838432595
676,6041536.128915831
678,6041346.24345349
680,6041150.289956291
682,6041410.314774397
684,6041560.064687422
686,6041447.9187860545
688,6040955.81893969
690,6041315.875338955
692,6041350.307975556
694,6041850.281893436
696,6041497.367671758
698,6041199.302168769
700,6041453.64627868
702,6041828.693192877
704,6040860.42770877
706,6041675.622792104
708,6041571.681644926
710,6041346.454989626
712,6041546.234560798
714,6041858.824615336
716,6041142.5820534965
718,6041286.403162461
720,6041703.1207177285
722,6041807.585318082
724,6041329.8607438
726,6041296.890614847
728,6041527.288726995
730,6041723.792105585
732,6041192.330811199
734,6041150.1016538385
736,6041704.398114255
738,6041255.137810724
740,6041344.973276121
742,6041402.044472554
744,6041509.896928869
746,6041611.23472158
748,6041281.529689905
750,6041392.455248062
752,6040981.1977447625
754,6041295.389267499
756,6041239.4416478425
758,6041271.659960353
760,6041533.037164191
762,6033170.558480699
764,5997309.196911797
766,5919816.184365741
768,5789128.623488824
770,5591227.92157777
772,5331562.926099856
774,5030824.995786329
776,4699258.250554136
778,4346757.545140255
780,3987299.429810042
782,3631624.3336451664
784,3286378.269654552
786,2964560.482130975
788,2677357.907088312
790,2431812.978824052
792,2227005.630354121
794,2056991.6675400746
796,1912122.286436368
798,1783069.2196949078
800,1663500.214270693
802,1548744.6415391257
804,1440089.3704584274
806,1338355.7413583586
808,1246002.4351940232
810,1164641.9993123675
812,1094313.8934356393
814,1033315.1507154639
816,979276.3012057306
818,928884.3489745458
820,880151.1850921786
822,831067.2044299131
824,781134.7456778135
826,731197.4373941015
828,682133.9307999852
830,635157.065687494
832,590767.9318637582
834,549817.9262336656
836,511926.9827578021
838,476508.58827418834
840,442988.8091633684
842,410512.7161371145
844,378885.83903410326
846,347759.8550145639
848,317145.038704723
850,286997.5341464601
852,257814.11993689087
854,229635.74166079867
856,202883.51438950063
858,177548.2583061767
860,153963.78261275878
862,132580.8515415665
864,113288.53811543316
866,96239.40874515912
868,81413.00428997858
870,68826.20859127876
872,58133.754868965356
874,49160.33286656182
876,41666.7751322839
878,35497.06635140222
880,30295.018445045593
882,25695.68578759554
884,21591.37521759164
886,17852.922836174053
888,14389.809163301048
890,11160.697668091325
892,8122.388938503005
894,5540.658797514908
896,3560.8201047046186
898,2067.8082667675035
900,1036.1379326991748
902,389.7262820249188
904,91.05201843704549
906,33.85408597934234
908,10.175341117526877
910,0.4798427012002451
912,-3.482973111878331
914,2.393407046365594
916,-5.54246237681494
918,-0.29287613119402345
920,-2.3379566926154904
922,4.289920058427215
924,0.9442159283387628
926,-2.7336637591896857
928,1.0006701908683229
930,-1.3057717257606596
932,1.5404292547943992
934,4.001179039549514
936,-1.414773894536123
938,3.248233771030033
940,0.4896997775772239
942,3.269850699677664
944,0.8757233738836303
946,1.835094323646329
948,-1.5911823412967454
950,0.22756291881490442
952,1.4645588048001232
954,3.043621082643513
956,0.027056986644400358
958,-0.10659459427895207
960,-0.7023202398106899
962,-2.0064684457895754
964,-3.0020412361544704
966,-2.2327748367148637
968,-2.2451702637504916
970,3.087313082970052
972,-1.474238603491238
974,-1.3750943045639343
976,0.09099228775895851
978,-4.359327552662422
980,0.17173412192045567
982,0.5883557203648353
984,-0.6237451035931326
986,0.24693956783995888
988,-1.1733774690472267
990,1.089032408027303
992,0.5823660453244227
994,0.22070109661222787
996,-2.4283186811864717
998,-1.410528741235163
