wave,flux
336,211.16437392856378
338,384.9119716669399
340,643.4846351746502
342,978.6843100797427
344,1390.9429213187968
346,1873.7428651071816
348,2484.6429458890975
350,3345.827268358184
352,4469.921897644746
354,5795.8523885368295
356,7431.2990482971945
358,9441.01703502519
360,11709.029281368648
362,14188.05580063719
364,16924.498883610297
366,20013.66861224131
368,23587.153993549946
370,27877.19723166379
372,33302.95085211191
374,40396.345861410904
376,49722.55537351215
378,62198.04329028368
380,78751.51642111079
382,100194.07396234089
384,126968.22762858092
386,159622.59230179255
388,198183.19922860689
390,242234.51831127887
392,291105.5640090869
394,343384.14780971425
396,397488.9240697189
398,451635.0401479821
400,505630.2146065273
402,561441.9980771767
404,624548.1205935859
406,702522.0686727862
408,801728.2468312639
410,922249.3896502885
412,1057541.857173409
414,1197012.7409557123
416,1334332.7237774862
418,1470582.06686247
420,1611598.5173189435
422,1760411.266917985
424,1914861.253960655
426,2066355.9216666159
428,2206507.7104204604
430,2331931.503598913
432,2445183.4907293767
434,2552950.6095649344
436,2665635.502853322
438,2790048.8536822
440,2933771.160335517
442,3100831.9959595017
444,3294919.557420842
446,3517602.708235508
448,3767255.4926064094
450,4040138.0731390216
452,4324559.921953819
454,4609411.036657469
456,4881291.76531307
458,5133368.956030439
460,5360114.701321869
462,5555938.955732017
464,5718553.1832382325
466,5846330.527062567
468,5936530.211102951
470,5992870.6974555375
472,6024162.426418265
474,6037703.806266385
476,6041556.068473499
478,6040882.276488695
480,6041561.513944188
482,6041360.266532422
484,6041557.255042868
486,6041440.696174909
488,6041689.721204912
490,6041670.765449487
492,6041482.263402978
494,6041791.00410497
496,6041490.119351218
498,6041359.223140761
500,6041022.49684764
502,6041835.211411701
504,6041298.136817027
506,6041370.681384937
508,6041573.239742404
510,6041218.758024738
512,6041289.5515125785
514,6041220.905749396
516,6041566.596285351
518,6040760.876401324
520,6041228.301540199
522,6041487.21619925
524,6041647.757028946
526,6041654.475773717
528,6041445.066381696
530,6041411.887716793
532,6041538.689245815
534,6041016.194316482
536,6041559.67416888
538,6041412.631608648
540,6041600.541128283
542,6041516.645461887
544,6041299.152703871
546,6041730.185777847
548,6041687.081366426
550,6041288.538811825
552,6041313.594764946
554,6041223.721804363
556,6041414.404645779
558,6041383.145507235
560,6041177.728776198
562,6040915.778471998
564,6041305.950070122
566,6041925.290134195
568,6041421.78001391
570,6041345.616094174
572,6041649.3299414795
574,6041468.940215528
576,6041244.841341233
578,6041317.904631132
580,6041422.0276925685
582,6041418.695112144
584,6041437.117864051
586,6041612.778627582
588,6041923.826797966
590,6041452.654039737
592,6041293.069354738
594,6041636.615948224
596,6041589.892830509
598,6041088.641380457
600,6041137.503328738
602,6041666.325078799
604,6041625.701596056
606,6041192.070034768
608,6041436.952096259
610,6041291.5669772765
612,6041144.107011858
614,6041246.836657158
616,6041202.829110618
618,6040866.352792576
620,6040539.816449118
622,6040538.615197973
624,6040984.061093681
626,6041769.571733309
628,6042312.370116887
630,6041952.552502465
632,6040743.32153777
634,6040961.129021424
636,6041808.920239992
638,6040688.340030078
640,6040611.795845444
642,6041947.428874746
644,6042551.82785087
646,6041783.988808157
648,6039973.406838095
650,6038533.322085436
652,6040349.6260595275
654,6043211.634432749
656,6042120.236376651
658,6040677.598411996
660,6041155.872102659
662,6041418.711742612
664,6041254.639554076
666,6041196.587742815
668,6041237.745086774
670,6041295.508977771
672,6041287.281680762
674,6041167.5461320095
676,6041536.486409134
678,6041346.268646185
680,6041150.291537586
682,6041410.314866273
684,6041560.064692458
686,6041447.918786318
688,6040955.818939702
690,6041315.875338954
692,6041350.307975556
694,6041850.281893436
696,6041497.367671758
698,6041199.302168769
700,6041453.64627868
702,6041828.693192877
704,6040860.42770877
706,6041675.622792104
708,6041571.681644926
710,6041346.454989626
712,6041546.234560798
714,6041858.824615336
716,6041142.5820534965
718,6041286.403162461
720,6041703.1207177285
722,6041807.585318082
724,6041329.8607438
726,6041296.890614847
728,6041527.288726995
730,6041723.792105585
732,6041192.330811199
734,6041150.1016538385
736,6041704.398114255
738,6041255.137810724
740,6041344.973276121
742,6041402.044472554
744,6041509.896928869
746,6041611.23472158
748,6041281.529689905
750,6041392.455248062
752,6040981.1977447625
754,6041295.389267499
756,6041239.4416478425
758,6041271.659960353
760,6041533.037164191
762,6033170.558480699
764,5997309.196911797
766,5919816.184365741
768,5789128.623488824
770,5591227.92157777
772,5331562.926099856
774,5030824.995786329
776,4699258.250554136
778,4346757.545140255
780,3987299.429810042
782,3631624.3336451664
784,3286378.269654552
786,2964560.482130975
788,2677357.907088312
790,2431812.978824052
792,2227005.630354121
794,2056991.6675400746
796,1912122.286436368
798,1783069.2196949078
800,1663500.214270693
802,1548744.6415391257
804,1440089.3704584274
806,1338355.7413583586
808,1246002.4351940232
810,1164641.9993123675
812,1094313.8934356393
814,1033315.1507154639
816,979276.3012057306
818,928884.3489745458
820,880151.1850921786
822,831067.2044299131
824,781134.7456778135
826,731197.4373941015
828,682133.9307999852
830,635157.065687494
832,590767.9318637582
834,549817.9262336656
836,511926.9827578021
838,476508.58827418834
840,442988.8091633684
842,410512.7161371145
844,378885.83903410326
846,347759.8550145639
848,317145.038704723
850,286997.5341464601
852,257814.11993689087
854,229635.74166079867
856,202883.51438950063
858,177548.2583061767
860,153963.78261275878
862,132580.8515415665
864,113288.53811543316
866,96239.40874515912
868,81413.00428997858
870,68826.20859127876
872,58133.754868965356
874,49160.33286656182
876,41666.7751322839
878,35497.06635140222
880,30295.018445045593
882,25695.68578759554
884,21591.37521759164
886,17852.922836174053
888,14389.809163301048
890,11160.697668091325
892,8122.388938503005
894,5540.658797514908
896,3560.8201047046186
898,2067.8082667675035
900,1036.1379326991748
902,389.7262820249188
904,91.05201843704549
906,33.85408597934234
908,10.175341117526877
910,0.4798427012002451
912,-3.482973111878331
914,2.393407046365594
916,-5.54246237681494
918,-0.29287613119402345
920,-2.3379566926154904
922,4.289920058427215
924,0.9442159283387628
926,-2.7336637591896857
928,1.0006701908683229
930,-1.3057717257606596
932,1.5404292547943992
934,4.001179039549514
936,-1.414773894536123
938,3.248233771030033
940,0.4896997775772239
942,3.269850699677664
944,0.8757233738836303
946,1.835094323646329
948,-1.5911823412967454
950,0.22756291881490442
952,1.4645588048001232
954,3.043621082643513
956,0.027056986644400358
958,-0.10659459427895207
960,-0.7023202398106899
962,-2.0064684457895754
964,-3.0020412361544704
966,-2.2327748367148637
968,-2.2451702637504916
970,3.087313082970052
972,-1.474238603491238
974,-1.3750943045639343
976,0.09099228775895851
978,-4.359327552662422
980,0.17173412192045567
982,0.5883557203648353
984,-0.6237451035931326
986,0.24693956783995888
988,-1.1733774690472267
990,1.089032408027303
992,0.5823660453244227
994,0.22070109661222787
996,-2.4283186811864717
998,-1.410528741235163
