wave,flux
336,868.6176989175085
338,1541.5269952746787
340,2374.4518851274906
342,3385.1930867581414
344,4613.913969397872
346,6062.993300971321
348,7804.305823299377
350,9909.082056988773
352,12536.73996743829
354,15845.223904122284
356,19795.39446271082
358,24270.6290530502
360,29276.152611057314
362,34823.714346215114
364,40925.70835242589
366,47765.9566689668
368,55556.635708418
370,64847.59166986755
372,76701.77856535725
374,93242.7260235287
376,117935.9167298828
378,154806.62705664532
380,206914.42131943305
382,276234.94359076576
384,363915.10503218835
386,468894.2150397927
388,586406.5606527934
390,708779.093593111
392,829492.0238550924
394,945628.7652416287
396,1057946.454349121
398,1167986.720561026
400,1278220.3103590233
402,1390720.7263822919
404,1509309.864618775
406,1639758.1337871088
408,1789356.646349857
410,1963479.0164668853
412,2162047.0784970876
414,2380263.9620654513
416,2608359.5691526406
418,2837537.399612725
420,3060375.985451537
422,3275335.7968617175
424,3485122.8394885883
426,3693813.436848668
428,3903564.4511568923
430,4114620.50916451
432,4325520.518341707
434,4535230.6299406495
436,4742900.2772773495
438,4949491.147215778
440,5154498.618417768
442,5356004.017643404
444,5546304.964909783
446,5712497.965945251
448,5847078.271587782
450,5942425.4166422095
452,5999180.857553013
454,6028357.455514919
456,6039842.437735915
458,6041660.3545707585
460,6041684.161020158
462,6041199.651723219
464,6041826.910203574
466,6041515.284551791
468,6041197.125675233
470,6041231.335079221
472,6041147.749077428
474,6041656.994891729
476,6041586.784734232
478,6041711.122077378
480,6041064.2925855415
482,6041338.164204058
484,6041424.210086123
486,6041583.014436575
488,6041236.940165948
490,6041572.55308962
492,6041620.282747567
494,6041310.776238794
496,6041556.4678586
498,6041098.194776164
500,6041375.215454612
502,6041327.945677567
504,6041731.412476973
506,6041162.807559105
508,6041339.723407464
510,6041371.484972023
512,6041449.499379886
514,6041513.924049656
516,6041768.581555585
518,6041320.42402743
520,6041086.550771777
522,6041094.753744541
524,6041538.307895295
526,6041488.325073501
528,6041672.692711577
530,6041452.838168927
532,6041153.174175153
534,6041675.523198132
536,6041566.434098879
538,6041424.567234089
540,6041778.559093933
542,6041480.30029691
544,6040986.553785728
546,6041659.421747304
548,6041400.909793927
550,6041340.526958105
552,6041486.839438867
554,6041758.340987355
556,6041523.693630893
558,6041346.5888442835
560,6041640.513480019
562,6041424.056804328
564,6042042.491321276
566,6041399.289831387
568,6041332.427505061
570,6041237.583251242
572,6041565.781047015
574,6040655.003811604
576,6040992.823209106
578,6041861.948318252
580,6041504.170808002
582,6041001.06194608
584,6041177.7314690305
586,6040992.607705739
588,6041252.010696928
590,6041409.285643095
592,6041450.515388439
594,6041576.226365942
596,6041632.158586025
598,6041496.307683192
600,6041571.617362207
602,6041594.289182625
604,6041892.449750639
606,6042062.589076421
608,6041363.155718286
610,6041353.194205478
612,6041542.929747266
614,6041413.066292773
616,6041137.218949754
618,6040843.134815877
620,6041470.969118127
622,6042084.644823287
624,6041354.926856134
626,6041528.700866934
628,6041525.179121566
630,6040758.873465472
632,6041288.187352267
634,6041885.429919625
636,6041819.746086458
638,6041765.284897178
640,6042109.401250741
642,6041864.451160291
644,6040006.449022479
646,6038360.351092179
648,6038920.360605046
650,6041886.397304657
652,6042927.810323531
654,6041796.218565858
656,6041734.6377019165
658,6041864.6321589025
660,6041377.43256277
662,6040937.660299358
664,6040739.371490564
666,6040725.130518259
668,6040836.4220906105
670,6041014.730915781
672,6041201.541701935
674,6041165.881071945
676,6041536.339878974
678,6041346.258320147
680,6041150.290889442
682,6041410.314828614
684,6041560.064690394
686,6041447.91878621
688,6040955.818939697
690,6041315.875338953
692,6041350.307975556
694,6041850.281893436
696,6041497.367671758
698,6041199.302168769
700,6041453.64627868
702,6041828.693192877
704,6040860.42770877
706,6041675.622792104
708,6041571.681644926
710,6041346.454989626
712,6041546.234560798
714,6041858.824615336
716,6041142.5820534965
718,6041286.403162461
720,6041703.1207177285
722,6041807.585318082
724,6041329.8607438
726,6041296.890614847
728,6041527.288726995
730,6041723.792105585
732,6041192.330811199
734,6041150.1016538385
736,6041704.398114255
738,6041255.137810724
740,6041344.973276121
742,6041402.044472554
744,6041509.896928869
746,6041611.23472158
748,6041281.529689905
750,6041392.455248062
752,6040981.1977447625
754,6041295.389267499
756,6041239.4416478425
758,6041271.659960353
760,6041533.037164191
762,6033170.558480699
764,5997309.196911797
766,5919816.184365741
768,5789128.623488824
770,5591227.92157777
772,5331562.926099856
774,5030824.995786329
776,4699258.250554136
778,4346757.545140255
780,3987299.429810042
782,3631624.3336451664
784,3286378.269654552
786,2964560.482130975
788,2677357.907088312
790,2431812.978824052
792,2227005.630354121
794,2056991.6675400746
796,1912122.286436368
798,1783069.2196949078
800,1663500.214270693
802,1548744.6415391257
804,1440089.3704584274
806,1338355.7413583586
808,1246002.4351940232
810,1164641.9993123675
812,1094313.8934356393
814,1033315.1507154639
816,979276.3012057306
818,928884.3489745458
820,880151.1850921786
822,831067.2044299131
824,781134.7456778135
826,731197.4373941015
828,682133.9307999852
830,635157.065687494
832,590767.9318637582
834,549817.9262336656
836,511926.9827578021
838,476508.58827418834
840,442988.8091633684
842,410512.7161371145
844,378885.83903410326
846,347759.8550145639
848,317145.038704723
850,286997.5341464601
852,257814.11993689087
854,229635.74166079867
856,202883.51438950063
858,177548.2583061767
860,153963.78261275878
862,132580.8515415665
864,113288.53811543316
866,96239.40874515912
868,81413.00428997858
870,68826.20859127876
872,58133.754868965356
874,49160.33286656182
876,41666.7751322839
878,35497.06635140222
880,30295.018445045593
882,25695.68578759554
884,21591.37521759164
886,17852.922836174053
888,14389.809163301048
890,11160.697668091325
892,8122.388938503005
894,5540.658797514908
896,3560.8201047046186
898,2067.8082667675035
900,1036.1379326991748
902,389.7262820249188
904,91.05201843704549
906,33.85408597934234
908,10.175341117526877
910,0.4798427012002451
912,-3.482973111878331
914,2.393407046365594
916,-5.54246237681494
918,-0.29287613119402345
920,-2.3379566926154904
922,4.289920058427215
924,0.9442159283387628
926,-2.7336637591896857
928,1.0006701908683229
930,-1.3057717257606596
932,1.5404292547943992
934,4.001179039549514
936,-1.414773894536123
938,3.248233771030033
940,0.4896997775772239
942,3.269850699677664
944,0.8757233738836303
946,1.835094323646329
948,-1.5911823412967454
950,0.22756291881490442
952,1.4645588048001232
954,3.043621082643513
956,0.027056986644400358
958,-0.10659459427895207
960,-0.7023202398106899
962,-2.0064684457895754
964,-3.0020412361544704
966,-2.2327748367148637
968,-2.2451702637504916
970,3.087313082970052
972,-1.474238603491238
974,-1.3750943045639343
976,0.09099228775895851
978,-4.359327552662422
980,0.17173412192045567
982,0.5883557203648353
984,-0.6237451035931326
986,0.24693956783995888
988,-1.1733774690472267
990,1.089032408027303
992,0.5823660453244227
994,0.22070109661222787
996,-2.4283186811864717
998,-1.410528741235163
