wave,flux
336,2267.622313266884
338,3559.118107344
340,6156.7685023072245
342,10734.798821833438
344,17576.37818890999
346,28968.599277229223
348,42544.611789429844
350,52592.77700220277
352,60051.56738809901
354,69026.61083980203
356,81095.25591117147
358,94591.26020132544
360,109002.54765723356
362,128472.09464210724
364,155868.39070854275
366,187498.46960927566
368,220567.01235237275
370,257704.99567296833
372,307142.4392262864
374,383257.6122717161
376,497935.4220137382
378,642825.1825985967
380,785715.5834937064
382,899703.8759765227
384,995476.4630250983
386,1125767.8170967514
388,1359944.2985296915
390,1750399.2472777895
392,2325519.999518241
394,3092535.614447382
396,3999888.2083568
398,4882027.272035782
400,5550116.508153858
402,5902421.419610879
404,6027626.969135507
406,6041198.4920722125
408,6041322.121005452
410,6041514.270104033
412,6041483.505390986
414,6041303.91716887
416,6041564.2296581995
418,6041120.388934733
420,6041463.719009727
422,6041554.913719796
424,6041718.047756952
426,6041498.294943789
428,6041708.50676183
430,6041682.925332255
432,6041212.205545757
434,6041290.484135176
436,6041416.427139048
438,6041480.812477715
440,6041906.850414723
442,6041264.748410543
444,6041740.639921324
446,6041388.215009926
448,6041613.954484402
450,6041541.302139316
452,6041469.5799125945
454,6041320.582811707
456,6041475.5752249425
458,6041296.972165271
460,6040996.18713166
462,6041783.6212655585
464,6041216.595115024
466,6041177.392892584
468,6041260.638075944
470,6041198.42646996
472,6041588.031370696
474,6041555.428970853
476,6041607.406970104
478,6041403.464760297
480,6041015.407431636
482,6041603.637980816
484,6041310.706385055
486,6041732.352920515
488,6041047.414291063
490,6041203.082286207
492,6041865.842307576
494,6041359.906584075
496,6041637.204248792
498,6041432.189393255
500,6041954.649312608
502,6041644.686027163
504,6041388.618793869
506,6041393.126165054
508,6041170.828980032
510,6041882.3801872665
512,6041168.159273376
514,6041855.495285795
516,6041491.011836021
518,6041520.750588623
520,6041323.785816184
522,6041609.478499925
524,6041521.655432626
526,6041057.397103022
528,6041769.230521354
530,6041781.4846246345
532,6040941.626573371
534,6041733.875841999
536,6041568.507926882
538,6040935.249968695
540,6041447.02315142
542,6041322.513971726
544,6041172.575669618
546,6041173.741463829
548,6041289.896646556
550,6041444.279914452
552,6040731.905538944
554,6040825.016513904
556,6041420.067185795
558,6041588.315476173
560,6041815.692778932
562,6041393.974176764
564,6041234.71146891
566,6041382.901866864
568,6041575.016423849
570,6041236.874423486
572,6041096.714602677
574,6041345.641648148
576,6041076.097719148
578,6041219.349452501
580,6041455.6589124575
582,6041353.014838402
584,6041277.673032148
586,6041152.431606406
588,6041404.637931788
590,6041298.676868046
592,6041344.43249389
594,6041334.64002304
596,6041250.443023659
598,6041594.333049765
600,6041417.665676318
602,6041440.612128712
604,6041499.832047307
606,6041394.886226272
608,6041503.435120482
610,6041399.621575569
612,6041231.401542339
614,6041251.486871169
616,6041366.774882366
618,6041222.239382486
620,6041247.616689962
622,6041718.169457575
624,6041999.865728219
626,6040728.533364729
628,6040406.122743716
630,6041937.9086080035
632,6042164.863402778
634,6042032.030915804
636,6041956.971891355
638,6041269.407102411
640,6041345.293530054
642,6041426.355080858
644,6039979.184361095
646,6038986.571441377
648,6039517.385614819
650,6041143.371436047
652,6042486.733019959
654,6041973.394693453
656,6041487.443975944
658,6042184.805222277
660,6041876.585862484
662,6041354.269506003
664,6041479.985294021
666,6041443.436969443
668,6041107.976540265
670,6041563.760634952
672,6041267.206286651
674,6041163.4838453205
676,6041536.128916013
678,6041346.243453504
680,6041150.289956292
682,6041410.314774397
684,6041560.064687422
686,6041447.9187860545
688,6040955.81893969
690,6041315.875338955
692,6041350.307975556
694,6041850.281893436
696,6041497.367671758
698,6041199.302168769
700,6041453.64627868
702,6041828.693192877
704,6040860.42770877
706,6041675.622792104
708,6041571.681644926
710,6041346.454989626
712,6041546.234560798
714,6041858.824615336
716,6041142.5820534965
718,6041286.403162461
720,6041703.1207177285
722,6041807.585318082
724,6041329.8607438
726,6041296.890614847
728,6041527.288726995
730,6041723.792105585
732,6041192.330811199
734,6041150.1016538385
736,6041704.398114255
738,6041255.137810724
740,6041344.973276121
742,6041402.044472554
744,6041509.896928869
746,6041611.23472158
748,6041281.529689905
750,6041392.455248062
752,6040981.1977447625
754,6041295.389267499
756,6041239.4416478425
758,6041271.659960353
760,6041533.037164191
762,6033170.558480699
764,5997309.196911797
766,5919816.184365741
768,5789128.623488824
770,5591227.92157777
772,5331562.926099856
774,5030824.995786329
776,4699258.250554136
778,4346757.545140255
780,3987299.429810042
782,3631624.3336451664
784,3286378.269654552
786,2964560.482130975
788,2677357.907088312
790,2431812.978824052
792,2227005.630354121
794,2056991.6675400746
796,1912122.286436368
798,1783069.2196949078
800,1663500.214270693
802,1548744.6415391257
804,1440089.3704584274
806,1338355.7413583586
808,1246002.4351940232
810,1164641.9993123675
812,1094313.8934356393
814,1033315.1507154639
816,979276.3012057306
818,928884.3489745458
820,880151.1850921786
822,831067.2044299131
824,781134.7456778135
826,731197.4373941015
828,682133.9307999852
830,635157.065687494
832,590767.9318637582
834,549817.9262336656
836,511926.9827578021
838,476508.58827418834
840,442988.8091633684
842,410512.7161371145
844,378885.83903410326
846,347759.8550145639
848,317145.038704723
850,286997.5341464601
852,257814.11993689087
854,229635.74166079867
856,202883.51438950063
858,177548.2583061767
860,153963.78261275878
862,132580.8515415665
864,113288.53811543316
866,96239.40874515912
868,81413.00428997858
870,68826.20859127876
872,58133.754868965356
874,49160.33286656182
876,41666.7751322839
878,35497.06635140222
880,30295.018445045593
882,25695.68578759554
884,21591.37521759164
886,17852.922836174053
888,14389.809163301048
890,11160.697668091325
892,8122.388938503005
894,5540.658797514908
896,3560.8201047046186
898,2067.8082667675035
900,1036.1379326991748
902,389.7262820249188
904,91.05201843704549
906,33.85408597934234
908,10.175341117526877
910,0.4798427012002451
912,-3.482973111878331
914,2.393407046365594
916,-5.54246237681494
918,-0.29287613119402345
920,-2.3379566926154904
922,4.289920058427215
924,0.9442159283387628
926,-2.7336637591896857
928,1.0006701908683229
930,-1.3057717257606596
932,1.5404292547943992
934,4.001179039549514
936,-1.414773894536123
938,3.248233771030033
940,0.4896997775772239
942,3.269850699677664
944,0.8757233738836303
946,1.835094323646329
948,-1.5911823412967454
950,0.22756291881490442
952,1.4645588048001232
954,3.043621082643513
956,0.027056986644400358
958,-0.10659459427895207
960,-0.7023202398106899
962,-2.0064684457895754
964,-3.0020412361544704
966,-2.2327748367148637
968,-2.2451702637504916
970,3.087313082970052
972,-1.474238603491238
974,-1.3750943045639343
976,0.09099228775895851
978,-4.359327552662422
980,0.17173412192045567
982,0.5883557203648353
984,-0.6237451035931326
986,0.24693956783995888
988,-1.1733774690472267
990,1.089032408027303
992,0.5823660453244227
994,0.22070109661222787
996,-2.4283186811864717
998,-1.410528741235163
