wave,flux
336,435779.9872707382
338,517050.62276320724
340,594904.8130260729
342,712629.9734854836
344,886610.5852631889
346,1050996.7101783904
348,1137138.869094183
350,1186164.987589775
352,1291557.5706278624
354,1468389.3504050998
356,1646796.8495214358
358,1771782.843889275
360,1854646.9203621077
362,1912622.3948833537
364,1933814.3042411841
366,1923468.6465222929
368,1908904.9925789344
370,1894473.9915609024
372,1865101.2477767596
374,1827384.1465876205
376,1809368.636316859
378,1831517.0808390526
380,1901996.1893703903
382,2034286.698985671
384,2235397.8724223734
386,2492028.1547030197
388,2778966.8038028427
390,3076910.841927115
392,3363076.0754608884
394,3591833.463778937
396,3721199.0117756
398,3756636.530299743
400,3762319.0958680464
402,3817352.62930965
404,3969295.118985946
406,4217638.884364272
408,4538099.199029263
410,4904737.64513152
412,5275932.7883526515
414,5603480.6119923
416,5843438.072738234
418,5976114.222027116
420,6031206.305387979
422,6041768.537479188
424,6041737.417344269
426,6041440.059945228
428,6041409.4035364585
430,6041257.975565546
432,6041064.409798563
434,6041190.178214695
436,6041150.739265968
438,6041078.58030747
440,6041345.5981883025
442,6041350.092797608
444,6041655.669005262
446,6041580.524638029
448,6041234.440058424
450,6041476.31398038
452,6041573.807907103
454,6041262.874715444
456,6041705.834515646
458,6041015.466922089
460,6041359.775437642
462,6041704.207363227
464,6041335.912210637
466,6041568.259983137
468,6041410.3065134
470,6041557.42122826
472,6041392.114346962
474,6041557.320273264
476,6041501.785000927
478,6041628.755100203
480,6041158.894451849
482,6041333.116950833
484,6041561.734483236
486,6041578.307404592
488,6041596.439651159
490,6041464.39297354
492,6041714.880135378
494,6041484.2868387215
496,6041560.797841291
498,6041191.411858257
500,6041428.032723644
502,6041674.335345877
504,6041241.539396762
506,6041069.761830575
508,6041321.506086019
510,6041718.376088168
512,6041167.385367177
514,6041031.959815806
516,6041656.733426656
518,6041314.287444779
520,6041411.705897072
522,6041789.703868721
524,6041295.555521977
526,6041634.518345468
528,6041716.090555885
530,6041498.6531746
532,6041149.184465094
534,6041536.766268005
536,6041110.648954051
538,6041883.258321991
540,6041774.719036847
542,6041432.004498565
544,6041278.397549913
546,6041488.216882066
548,6041630.782753308
550,6041320.42640931
552,6041630.673308704
554,6041535.893252038
556,6041483.106834429
558,6041776.807202997
560,6041641.651205596
562,6041576.812886521
564,6041095.776178264
566,6041374.678892921
568,6041449.050348355
570,6041604.99031969
572,6041227.418553025
574,6041172.215841624
576,6041275.264544061
578,6041404.398120137
580,6041417.347623386
582,6041529.774739794
584,6041732.055977626
586,6041474.768710461
588,6041329.883739487
590,6041651.956279808
592,6041444.441252523
594,6041058.397698003
596,6041354.931860669
598,6041647.145449197
600,6040825.763813914
602,6041136.549636666
604,6041673.357273443
606,6041437.047299939
608,6041513.648088332
610,6041457.24839176
612,6041447.740366704
614,6041551.379766097
616,6041583.926479993
618,6041658.866478179
620,6041824.634593126
622,6042072.230980416
624,6042063.099904011
626,6041013.365100648
628,6040674.285289774
630,6041367.84093483
632,6040723.390054915
634,6041257.509627396
636,6042716.523840643
638,6042345.993112551
640,6042484.671833294
642,6043103.3844855325
644,6042442.379403185
646,6041563.199667443
648,6041454.360726303
650,6042149.690685496
652,6042211.869059346
654,6041673.215339392
656,6041640.846146136
658,6041137.752548281
660,6040669.958456488
662,6042576.989537556
664,6043489.762117479
666,6040906.8373025395
668,6039923.009683482
670,6041182.156244907
672,6041353.128140889
674,6041168.740974944
676,6041536.59155881
678,6041346.276056125
680,6041150.292002694
682,6041410.314893296
684,6041560.064693941
686,6041447.918786396
688,6040955.818939705
690,6041315.875338955
692,6041350.307975556
694,6041850.281893436
696,6041497.367671758
698,6041199.302168769
700,6041453.64627868
702,6041828.693192877
704,6040860.42770877
706,6041675.622792104
708,6041571.681644926
710,6041346.454989626
712,6041546.234560798
714,6041858.824615336
716,6041142.5820534965
718,6041286.403162461
720,6041703.1207177285
722,6041807.585318082
724,6041329.8607438
726,6041296.890614847
728,6041527.288726995
730,6041723.792105585
732,6041192.330811199
734,6041150.1016538385
736,6041704.398114255
738,6041255.137810724
740,6041344.973276121
742,6041402.044472554
744,6041509.896928869
746,6041611.23472158
748,6041281.529689905
750,6041392.455248062
752,6040981.1977447625
754,6041295.389267499
756,6041239.4416478425
758,6041271.659960353
760,6041533.037164191
762,6033170.558480699
764,5997309.196911797
766,5919816.184365741
768,5789128.623488824
770,5591227.92157777
772,5331562.926099856
774,5030824.995786329
776,4699258.250554136
778,4346757.545140255
780,3987299.429810042
782,3631624.3336451664
784,3286378.269654552
786,2964560.482130975
788,2677357.907088312
790,2431812.978824052
792,2227005.630354121
794,2056991.6675400746
796,1912122.286436368
798,1783069.2196949078
800,1663500.214270693
802,1548744.6415391257
804,1440089.3704584274
806,1338355.7413583586
808,1246002.4351940232
810,1164641.9993123675
812,1094313.8934356393
814,1033315.1507154639
816,979276.3012057306
818,928884.3489745458
820,880151.1850921786
822,831067.2044299131
824,781134.7456778135
826,731197.4373941015
828,682133.9307999852
830,635157.065687494
832,590767.9318637582
834,549817.9262336656
836,511926.9827578021
838,476508.58827418834
840,442988.8091633684
842,410512.7161371145
844,378885.83903410326
846,347759.8550145639
848,317145.038704723
850,286997.5341464601
852,257814.11993689087
854,229635.74166079867
856,202883.51438950063
858,177548.2583061767
860,153963.78261275878
862,132580.8515415665
864,113288.53811543316
866,96239.40874515912
868,81413.00428997858
870,68826.20859127876
872,58133.754868965356
874,49160.33286656182
876,41666.7751322839
878,35497.06635140222
880,30295.018445045593
882,25695.68578759554
884,21591.37521759164
886,17852.922836174053
888,14389.809163301048
890,11160.697668091325
892,8122.388938503005
894,5540.658797514908
896,3560.8201047046186
898,2067.8082667675035
900,1036.1379326991748
902,389.7262820249188
904,91.05201843704549
906,33.85408597934234
908,10.175341117526877
910,0.4798427012002451
912,-3.482973111878331
914,2.393407046365594
916,-5.54246237681494
918,-0.29287613119402345
920,-2.3379566926154904
922,4.289920058427215
924,0.9442159283387628
926,-2.7336637591896857
928,1.0006701908683229
930,-1.3057717257606596
932,1.5404292547943992
934,4.001179039549514
936,-1.414773894536123
938,3.248233771030033
940,0.4896997775772239
942,3.269850699677664
944,0.8757233738836303
946,1.835094323646329
948,-1.5911823412967454
950,0.22756291881490442
952,1.4645588048001232
954,3.043621082643513
956,0.027056986644400358
958,-0.10659459427895207
960,-0.7023202398106899
962,-2.0064684457895754
964,-3.0020412361544704
966,-2.2327748367148637
968,-2.2451702637504916
970,3.087313082970052
972,-1.474238603491238
974,-1.3750943045639343
976,0.09099228775895851
978,-4.359327552662422
980,0.17173412192045567
982,0.5883557203648353
984,-0.6237451035931326
986,0.24693956783995888
988,-1.1733774690472267
990,1.089032408027303
992,0.5823660453244227
994,0.22070109661222787
996,-2.4283186811864717
998,-1.410528741235163
