wave,flux
336,-2.9893691326185587
338,1.4515617642822505
340,-0.15338946262316966
342,2.6225721239361763
344,-3.332173920975826
346,-1.096891190505222
348,0.015248704778520488
350,3.2595995107939535
352,1.763123759038969
354,3.113043473700589
356,76.94100343855658
358,474.8228397075613
360,1192.2283856265246
362,1928.5033670779499
364,2824.2965693045926
366,4331.923951198514
368,6763.9081104137695
370,10404.722682790127
372,15539.397219172588
374,22181.792561728584
376,30128.063986695244
378,39367.601224945014
380,49825.90730999081
382,61500.850564923865
384,74314.90838128266
386,88394.19137848665
388,104033.34112477736
390,121641.30702378709
392,141289.81859900904
394,162988.64204390722
396,186559.33584178504
398,211954.61351653154
400,239086.56782907152
402,267685.52433089924
404,297564.15435905685
406,329135.04058901314
408,362885.07819019264
410,398886.2362699054
412,437087.9919306947
414,478913.7580797371
416,529440.9654229003
418,597560.1303482649
420,694924.6231759351
422,830150.9979741785
424,1002955.9417660797
426,1201551.9158750612
428,1408217.1707767972
430,1611567.5632158834
432,1817696.6219685755
434,2050504.0892883798
436,2343106.046563526
438,2726698.4727967917
440,3219498.855370926
442,3803863.969529276
444,4418417.904111537
446,4992625.6731584165
448,5458665.584455197
450,5768645.875016988
452,5944199.219682567
454,6022013.170864095
456,6040913.737949441
458,6041525.9587896485
460,6041804.130412185
462,6041726.367644551
464,6041218.814525571
466,6041064.02151307
468,6041360.508514776
470,6041429.348242511
472,6041416.90140528
474,6041550.811367473
476,6041174.913604565
478,6041181.613783818
480,6041566.794721578
482,6041411.9533906225
484,6041566.369041265
486,6041478.358773054
488,6041081.238563311
490,6041296.117534551
492,6041584.202750041
494,6041341.752291828
496,6041145.713677162
498,6041748.90331509
500,6041459.388054688
502,6041734.409600929
504,6041458.492216116
506,6041569.419538218
508,6041688.635042196
510,6041425.924461381
512,6041482.4399705585
514,6041413.022279035
516,6041439.909905916
518,6041611.315433867
520,6041203.427515302
522,6041456.852184761
524,6041299.801783617
526,6041394.804284609
528,6041662.988505498
530,6041526.379079939
532,6041871.596302016
534,6041424.0421180185
536,6041436.263279173
538,6041686.057335291
540,6041404.901275039
542,6041196.513861998
544,6041437.713409831
546,6041318.805287776
548,6041319.689027523
550,6041442.713490426
552,6041843.837560202
554,6041587.152218511
556,6041296.282929143
558,6041215.515940524
560,6041473.475238557
562,6041449.871478988
564,6041295.693093376
566,6041150.36903149
568,6041234.311847522
570,6041226.545756156
572,6041223.14385848
574,6041347.722994771
576,6041336.844209729
578,6041528.950834964
580,6041361.182881797
582,6041159.379986845
584,6041504.509796482
586,6041471.809628788
588,6041329.998976403
590,6041604.9094749205
592,6041664.823082694
594,6041391.012590025
596,6041358.290731614
598,6041758.344501158
600,6041932.076078365
602,6041248.874478414
604,6041151.851923615
606,6041802.841381292
608,6041517.530191053
610,6041150.475436373
612,6041184.544213268
614,6041380.568621506
616,6041435.467552946
618,6041617.394432369
620,6041927.649404693
622,6042294.082305455
624,6042690.14872373
626,6043091.025727639
628,6043471.890385299
630,6043807.919764827
632,6044074.290934342
634,6044246.180961961
636,6044298.766915804
638,6044207.225863987
640,6043946.7348746285
642,6043492.471015846
644,6042819.61135576
646,6041903.332962487
648,6041643.100524504
650,6041400.849523325
652,6041705.760327985
654,6041397.689682114
656,6041151.2168273525
658,6041511.431216739
660,6041551.262288469
662,6041377.486709214
664,6041484.487439378
666,6041443.750089349
668,6041107.991048771
670,6041563.760999665
672,6041267.2062764475
674,6041163.483843256
676,6041536.128915831
678,6041346.24345349
680,6041150.289956291
682,6041410.314774397
684,6041560.064687422
686,6041447.9187860545
688,6040955.81893969
690,6041315.875338955
692,6041350.307975556
694,6041850.281893436
696,6041497.367671758
698,6041199.302168769
700,6041453.64627868
702,6041828.693192877
704,6040860.42770877
706,6041675.622792104
708,6041571.681644926
710,6041346.454989626
712,6041546.234560798
714,6041858.824615336
716,6041142.5820534965
718,6041286.403162461
720,6041703.1207177285
722,6041807.585318082
724,6041329.8607438
726,6041296.890614847
728,6041527.288726995
730,6041723.792105585
732,6041192.330811199
734,6041150.1016538385
736,6041704.398114255
738,6041255.137810724
740,6041344.973276121
742,6041402.044472554
744,6041509.896928869
746,6041611.23472158
748,6041281.529689905
750,6041392.455248062
752,6040981.1977447625
754,6041295.389267499
756,6041239.4416478425
758,6041271.659960353
760,6041533.037164191
762,6033170.558480699
764,5997309.196911797
766,5919816.184365741
768,5789128.623488824
770,5591227.92157777
772,5331562.926099856
774,5030824.995786329
776,4699258.250554136
778,4346757.545140255
780,3987299.429810042
782,3631624.3336451664
784,3286378.269654552
786,2964560.482130975
788,2677357.907088312
790,2431812.978824052
792,2227005.630354121
794,2056991.6675400746
796,1912122.286436368
798,1783069.2196949078
800,1663500.214270693
802,1548744.6415391257
804,1440089.3704584274
806,1338355.7413583586
808,1246002.4351940232
810,1164641.9993123675
812,1094313.8934356393
814,1033315.1507154639
816,979276.3012057306
818,928884.3489745458
820,880151.1850921786
822,831067.2044299131
824,781134.7456778135
826,731197.4373941015
828,682133.9307999852
830,635157.065687494
832,590767.9318637582
834,549817.9262336656
836,511926.9827578021
838,476508.58827418834
840,442988.8091633684
842,410512.7161371145
844,378885.83903410326
846,347759.8550145639
848,317145.038704723
850,286997.5341464601
852,257814.11993689087
854,229635.74166079867
856,202883.51438950063
858,177548.2583061767
860,153963.78261275878
862,132580.8515415665
864,113288.53811543316
866,96239.40874515912
868,81413.00428997858
870,68826.20859127876
872,58133.754868965356
874,49160.33286656182
876,41666.7751322839
878,35497.06635140222
880,30295.018445045593
882,25695.68578759554
884,21591.37521759164
886,17852.922836174053
888,14389.809163301048
890,11160.697668091325
892,8122.388938503005
894,5540.658797514908
896,3560.8201047046186
898,2067.8082667675035
900,1036.1379326991748
902,389.7262820249188
904,91.05201843704549
906,33.85408597934234
908,10.175341117526877
910,0.4798427012002451
912,-3.482973111878331
914,2.393407046365594
916,-5.54246237681494
918,-0.29287613119402345
920,-2.3379566926154904
922,4.289920058427215
924,0.9442159283387628
926,-2.7336637591896857
928,1.0006701908683229
930,-1.3057717257606596
932,1.5404292547943992
934,4.001179039549514
936,-1.414773894536123
938,3.248233771030033
940,0.4896997775772239
942,3.269850699677664
944,0.8757233738836303
946,1.835094323646329
948,-1.5911823412967454
950,0.22756291881490442
952,1.4645588048001232
954,3.043621082643513
956,0.027056986644400358
958,-0.10659459427895207
960,-0.7023202398106899
962,-2.0064684457895754
964,-3.0020412361544704
966,-2.2327748367148637
968,-2.2451702637504916
970,3.087313082970052
972,-1.474238603491238
974,-1.3750943045639343
976,0.09099228775895851
978,-4.359327552662422
980,0.17173412192045567
982,0.5883557203648353
984,-0.6237451035931326
986,0.24693956783995888
988,-1.1733774690472267
990,1.089032408027303
992,0.5823660453244227
994,0.22070109661222787
996,-2.4283186811864717
998,-1.410528741235163
