wave,flux
336,0.8276816437993432
338,3.0322360441003995
340,9.184910291109956
342,87.03963438040145
344,285.15367431139623
346,628.2846956115718
348,1126.863622917276
350,1681.6850389826177
352,2234.1737919437946
354,2847.4025773150424
356,3635.080589364482
358,4672.909501974224
360,6064.163426283077
362,7888.029462458368
364,10141.169957748245
366,12993.505601877769
368,16589.681477683265
370,20786.974437850044
372,25401.23264436432
374,30418.34578377038
376,36138.62407004727
378,42743.633653611054
380,50283.04823309843
382,58646.21655879004
384,68256.67259642146
386,79762.71271283015
388,94026.76217558977
390,112803.96213074247
392,140323.0300634904
394,179942.41415756315
396,233484.1381876529
398,299361.3781621037
400,377043.56561656203
402,464423.6878083641
404,558209.058087064
406,652663.9579866505
408,742502.2556652541
410,823459.8642888679
412,893981.424887529
414,957144.0002331076
416,1020964.8625502182
418,1096584.4646792712
420,1194928.8673823692
422,1322784.7992562696
424,1482540.2004576433
426,1672606.531095052
428,1888934.9564077258
430,2124854.070220116
432,2373498.283127791
434,2630741.5799434613
436,2895727.329687504
438,3171989.784280364
440,3462238.4123794115
442,3763213.033460121
444,4069844.25566082
446,4375243.093289735
448,4678206.70221633
450,4976551.84499106
452,5259231.386062394
454,5514273.535723848
456,5726240.121886813
458,5877680.150837561
460,5971039.51657419
462,6020543.445028434
464,6039209.212812979
466,6041246.877908246
468,6041341.65159774
470,6041325.3936940795
472,6041514.438814437
474,6041249.540177898
476,6041265.378358735
478,6041336.841596871
480,6041874.256018121
482,6041146.050977542
484,6041950.423098758
486,6041403.073385959
488,6041301.276346102
490,6041297.727043056
492,6041831.38888669
494,6040987.695444982
496,6041104.229665849
498,6041019.677117091
500,6041213.7134767305
502,6041375.590623001
504,6041302.174527911
506,6041277.725502835
508,6041287.351375485
510,6041128.98662193
512,6041357.547343275
514,6041350.975282672
516,6041596.123095296
518,6040816.301639371
520,6041694.14339585
522,6041990.423216174
524,6041416.964792458
526,6041530.000119352
528,6041174.185759423
530,6041074.828653854
532,6041469.47655661
534,6041805.419050188
536,6041554.489591313
538,6041202.542561152
540,6041530.856654597
542,6041382.4521861505
544,6041201.30183098
546,6041268.789031422
548,6041189.861254843
550,6041398.772832039
552,6041445.999256589
554,6041265.53855441
556,6041331.078316743
558,6041650.579906736
560,6041617.470692375
562,6041745.577567882
564,6041004.13870604
566,6041165.745907018
568,6041496.178621327
570,6040951.572207868
572,6041641.242673846
574,6041712.442291604
576,6041518.598160226
578,6041416.497827333
580,6041187.636643246
582,6041307.129892801
584,6041731.421531403
586,6041613.117136565
588,6041674.290509907
590,6041798.277711912
592,6041499.327458475
594,6041342.300692271
596,6041576.834402732
598,6041455.853143556
600,6041116.043626527
602,6041425.89236345
604,6041602.888744465
606,6041309.8012705445
608,6041408.067375445
610,6041413.774761863
612,6041368.7715069335
614,6041354.696032583
616,6041376.173189413
618,6041629.0226842435
620,6041751.561118732
622,6041419.37857086
624,6040713.244117634
626,6040163.236876764
628,6040396.056062046
630,6041418.961535453
632,6042262.92576821
634,6041662.500409105
636,6040820.587201934
638,6041783.446747216
640,6041596.237077547
642,6040499.476837347
644,6040847.125526337
646,6041484.953497881
648,6041414.668261895
650,6040710.492085759
652,6040790.041059394
654,6041726.833132994
656,6042320.9063621545
658,6042129.519997907
660,6042191.356848407
662,6044178.586240682
664,6042636.200954335
666,6037748.641772914
668,6041141.605975593
670,6039221.966131689
672,6041381.247169857
674,6040919.143116658
676,6041514.626216617
678,6041344.7281496795
680,6041150.19484372
682,6041410.309248175
684,6041560.064384496
686,6041447.918770181
688,6040955.81893888
690,6041315.875338913
692,6041350.307975554
694,6041850.281893436
696,6041497.367671758
698,6041199.302168769
700,6041453.64627868
702,6041828.693192877
704,6040860.42770877
706,6041675.622792104
708,6041571.681644926
710,6041346.454989626
712,6041546.234560798
714,6041858.824615336
716,6041142.5820534965
718,6041286.403162461
720,6041703.1207177285
722,6041807.585318082
724,6041329.8607438
726,6041296.890614847
728,6041527.288726995
730,6041723.792105585
732,6041192.330811199
734,6041150.1016538385
736,6041704.398114255
738,6041255.137810724
740,6041344.973276121
742,6041402.044472554
744,6041509.896928869
746,6041611.23472158
748,6041281.529689905
750,6041392.455248062
752,6040981.1977447625
754,6041295.389267499
756,6041239.4416478425
758,6041271.659960353
760,6041533.037164191
762,6033170.558480699
764,5997309.196911797
766,5919816.184365741
768,5789128.623488824
770,5591227.92157777
772,5331562.926099856
774,5030824.995786329
776,4699258.250554136
778,4346757.545140255
780,3987299.429810042
782,3631624.3336451664
784,3286378.269654552
786,2964560.482130975
788,2677357.907088312
790,2431812.978824052
792,2227005.630354121
794,2056991.6675400746
796,1912122.286436368
798,1783069.2196949078
800,1663500.214270693
802,1548744.6415391257
804,1440089.3704584274
806,1338355.7413583586
808,1246002.4351940232
810,1164641.9993123675
812,1094313.8934356393
814,1033315.1507154639
816,979276.3012057306
818,928884.3489745458
820,880151.1850921786
822,831067.2044299131
824,781134.7456778135
826,731197.4373941015
828,682133.9307999852
830,635157.065687494
832,590767.9318637582
834,549817.9262336656
836,511926.9827578021
838,476508.58827418834
840,442988.8091633684
842,410512.7161371145
844,378885.83903410326
846,347759.8550145639
848,317145.038704723
850,286997.5341464601
852,257814.11993689087
854,229635.74166079867
856,202883.51438950063
858,177548.2583061767
860,153963.78261275878
862,132580.8515415665
864,113288.53811543316
866,96239.40874515912
868,81413.00428997858
870,68826.20859127876
872,58133.754868965356
874,49160.33286656182
876,41666.7751322839
878,35497.06635140222
880,30295.018445045593
882,25695.68578759554
884,21591.37521759164
886,17852.922836174053
888,14389.809163301048
890,11160.697668091325
892,8122.388938503005
894,5540.658797514908
896,3560.8201047046186
898,2067.8082667675035
900,1036.1379326991748
902,389.7262820249188
904,91.05201843704549
906,33.85408597934234
908,10.175341117526877
910,0.4798427012002451
912,-3.482973111878331
914,2.393407046365594
916,-5.54246237681494
918,-0.29287613119402345
920,-2.3379566926154904
922,4.289920058427215
924,0.9442159283387628
926,-2.7336637591896857
928,1.0006701908683229
930,-1.3057717257606596
932,1.5404292547943992
934,4.001179039549514
936,-1.414773894536123
938,3.248233771030033
940,0.4896997775772239
942,3.269850699677664
944,0.8757233738836303
946,1.835094323646329
948,-1.5911823412967454
950,0.22756291881490442
952,1.4645588048001232
954,3.043621082643513
956,0.027056986644400358
958,-0.10659459427895207
960,-0.7023202398106899
962,-2.0064684457895754
964,-3.0020412361544704
966,-2.2327748367148637
968,-2.2451702637504916
970,3.087313082970052
972,-1.474238603491238
974,-1.3750943045639343
976,0.09099228775895851
978,-4.359327552662422
980,0.17173412192045567
982,0.5883557203648353
984,-0.6237451035931326
986,0.24693956783995888
988,-1.1733774690472267
990,1.089032408027303
992,0.5823660453244227
994,0.22070109661222787
996,-2.4283186811864717
998,-1.410528741235163
