wave,flux
336,120340.75253133413
338,132729.73707529192
340,140477.08778690075
342,150744.16376153653
344,178509.37626447607
346,234482.26584231298
348,303154.6703282518
350,351213.68996553635
352,376183.529046563
354,407397.96510169806
356,452384.69372235413
358,489551.06312156125
360,512022.4309318899
362,534040.3404177863
364,561961.4509977361
366,590993.0735609697
368,619136.5758155262
370,651519.6314238322
372,692483.3818246129
374,739861.9794162723
376,783007.1542143866
378,811121.9772908487
380,826499.3744293873
382,848375.1210747365
384,899549.8321823042
386,988767.6780025245
388,1108664.343760696
390,1246547.2125078202
392,1405531.9489769288
394,1601842.9686474486
396,1849640.9560354399
398,2141907.70856313
400,2449671.0792420423
402,2734917.2774968445
404,2971342.610526245
406,3153122.424266595
408,3291882.727925753
410,3408321.8037677263
412,3523340.223125346
414,3644337.106935577
416,3763123.415930537
418,3868957.85179557
420,3974147.5396979745
422,4128957.1063797222
424,4394990.101144569
426,4772784.873914024
428,5203404.7548928475
430,5591076.325963066
432,5850709.180451733
434,5988433.602778806
436,6037203.883311397
438,6041414.8626538385
440,6041512.511304773
442,6041396.828747809
444,6041185.125230076
446,6041170.865893415
448,6041602.321603587
450,6041530.24323555
452,6041409.617638024
454,6041562.146411502
456,6041569.698352579
458,6041308.9089246765
460,6040993.174102706
462,6041606.542340414
464,6041604.418175725
466,6041370.7533189
468,6041435.974012169
470,6041555.815424074
472,6041382.9613657985
474,6041754.4640508015
476,6041665.914522067
478,6041332.835922135
480,6041420.896736195
482,6041498.1096491525
484,6041438.271660527
486,6041182.483278153
488,6041220.064072983
490,6041187.9343271
492,6041558.646648232
494,6041447.355251652
496,6041298.556190791
498,6041524.681505675
500,6041354.8292602785
502,6041414.34831743
504,6041254.294646192
506,6041595.408969064
508,6041568.0921495035
510,6041742.624526735
512,6041570.622665571
514,6041605.2021844275
516,6041473.542560827
518,6041223.294581993
520,6041528.572279707
522,6041149.493081649
524,6041180.552224583
526,6041684.3960470995
528,6041566.993884876
530,6041453.471540055
532,6041347.556905314
534,6041495.347022964
536,6041443.444978596
538,6040973.597651269
540,6041719.854978183
542,6041469.702223863
544,6041384.694975486
546,6041717.107539209
548,6041639.059616731
550,6041286.354557303
552,6041354.36417069
554,6041422.069659258
556,6041716.396419377
558,6041527.092601826
560,6041705.238842155
562,6041621.508433828
564,6041239.880202361
566,6041183.345970395
568,6041288.0166096585
570,6041249.845724713
572,6041783.088748908
574,6041491.683739545
576,6041641.581721333
578,6041573.005456932
580,6041629.962818002
582,6041825.499991525
584,6041585.305843111
586,6041589.273018419
588,6041275.222579589
590,6041016.104548766
592,6041275.942914981
594,6041274.014060682
596,6041158.59086861
598,6041789.545027545
600,6041581.742470245
602,6041464.1055813795
604,6041453.598236914
606,6041418.5962278275
608,6041641.671060096
610,6041236.496183871
612,6041325.232052422
614,6041807.856362801
616,6041614.260175097
618,6041413.1934518935
620,6041814.671368704
622,6042527.360405768
624,6042354.155325407
626,6040227.111112218
628,6039303.374499536
630,6040806.050434371
632,6041209.470721357
634,6040866.341402901
636,6040464.213417255
638,6040044.184698759
640,6040294.157019296
642,6040230.444531761
644,6039130.554652487
646,6040761.456061909
648,6043677.190970476
650,6043564.752462253
652,6041638.060415317
654,6040403.71209849
656,6041430.733631366
658,6041711.953300775
660,6040662.326315739
662,6041549.206432614
664,6041847.3396747215
666,6039428.715600585
668,6038927.442985907
670,6040855.446767933
672,6041936.18295691
674,6042215.713321902
676,6042276.375297105
678,6041448.722038
680,6040762.233958797
682,6042383.874318421
684,6044029.000426636
686,6042897.862666029
688,6041082.839146628
690,6040661.604404264
692,6041899.479372466
694,6043342.877087239
696,6042462.381972843
698,6040803.921716127
700,6041539.639292078
702,6043455.49052859
704,6044370.178583547
706,6044425.082702022
708,6044214.547617483
710,6044087.624105718
712,6043269.899588745
714,6038948.9176684
716,6036866.528600967
718,6040906.033564003
720,6041717.060045619
722,6041711.323935754
724,6041317.686954501
726,6041295.789302735
728,6041527.220694004
730,6041723.79157321
732,6041192.331421189
734,6041150.101748557
736,6041704.398122423
738,6041255.1378109995
740,6041344.973276071
742,6041402.0444725435
744,6041509.896928869
746,6041611.23472158
748,6041281.529689905
750,6041392.455248062
752,6040981.1977447625
754,6041295.389267499
756,6041239.4416478425
758,6041271.659960353
760,6041533.037164191
762,6033170.558480699
764,5997309.196911797
766,5919816.184365741
768,5789128.623488824
770,5591227.92157777
772,5331562.926099856
774,5030824.995786329
776,4699258.250554136
778,4346757.545140255
780,3987299.429810042
782,3631624.3336451664
784,3286378.269654552
786,2964560.482130975
788,2677357.907088312
790,2431812.978824052
792,2227005.630354121
794,2056991.6675400746
796,1912122.286436368
798,1783069.2196949078
800,1663500.214270693
802,1548744.6415391257
804,1440089.3704584274
806,1338355.7413583586
808,1246002.4351940232
810,1164641.9993123675
812,1094313.8934356393
814,1033315.1507154639
816,979276.3012057306
818,928884.3489745458
820,880151.1850921786
822,831067.2044299131
824,781134.7456778135
826,731197.4373941015
828,682133.9307999852
830,635157.065687494
832,590767.9318637582
834,549817.9262336656
836,511926.9827578021
838,476508.58827418834
840,442988.8091633684
842,410512.7161371145
844,378885.83903410326
846,347759.8550145639
848,317145.038704723
850,286997.5341464601
852,257814.11993689087
854,229635.74166079867
856,202883.51438950063
858,177548.2583061767
860,153963.78261275878
862,132580.8515415665
864,113288.53811543316
866,96239.40874515912
868,81413.00428997858
870,68826.20859127876
872,58133.754868965356
874,49160.33286656182
876,41666.7751322839
878,35497.06635140222
880,30295.018445045593
882,25695.68578759554
884,21591.37521759164
886,17852.922836174053
888,14389.809163301048
890,11160.697668091325
892,8122.388938503005
894,5540.658797514908
896,3560.8201047046186
898,2067.8082667675035
900,1036.1379326991748
902,389.7262820249188
904,91.05201843704549
906,33.85408597934234
908,10.175341117526877
910,0.4798427012002451
912,-3.482973111878331
914,2.393407046365594
916,-5.54246237681494
918,-0.29287613119402345
920,-2.3379566926154904
922,4.289920058427215
924,0.9442159283387628
926,-2.7336637591896857
928,1.0006701908683229
930,-1.3057717257606596
932,1.5404292547943992
934,4.001179039549514
936,-1.414773894536123
938,3.248233771030033
940,0.4896997775772239
942,3.269850699677664
944,0.8757233738836303
946,1.835094323646329
948,-1.5911823412967454
950,0.22756291881490442
952,1.4645588048001232
954,3.043621082643513
956,0.027056986644400358
958,-0.10659459427895207
960,-0.7023202398106899
962,-2.0064684457895754
964,-3.0020412361544704
966,-2.2327748367148637
968,-2.2451702637504916
970,3.087313082970052
972,-1.474238603491238
974,-1.3750943045639343
976,0.09099228775895851
978,-4.359327552662422
980,0.17173412192045567
982,0.5883557203648353
984,-0.6237451035931326
986,0.24693956783995888
988,-1.1733774690472267
990,1.089032408027303
992,0.5823660453244227
994,0.22070109661222787
996,-2.4283186811864717
998,-1.410528741235163
