wave,flux
336,129.481063738939
338,184.80627352800045
340,230.2262866817934
342,267.9629524601532
344,317.7609492581822
346,411.90857572233426
348,570.0223719854251
350,797.2492848014076
352,1110.088676728093
354,1512.293897098084
356,1992.5309462476657
358,2573.7481834214454
360,3296.555606639463
362,4254.271399284574
364,5498.222768896876
366,7104.020900406936
368,9154.389267060433
370,11824.557682450613
372,15187.818010122639
374,19280.620283942768
376,24549.21364259902
378,31687.96010412877
380,41281.338153400735
382,53234.0228428431
384,67010.96064427884
386,81294.71206811174
388,94016.48761781756
390,103927.88330590355
392,112876.89406050465
394,123136.94604361862
396,136172.12884483428
398,150937.4467366859
400,168592.35252260417
402,190853.5605190418
404,220106.94048416626
406,257229.71268273974
408,302190.12928112433
410,354123.2884305168
412,411147.8865322076
414,471410.00815548934
416,533462.7145974785
418,597525.001864481
420,666483.9341363871
422,744792.988191727
424,837819.2539851647
426,950218.9620540106
428,1085062.5115730823
430,1242787.8217833722
432,1421251.019438802
434,1617128.15530775
436,1826420.9764757142
438,2046805.8987755668
440,2276136.253143601
442,2512287.155758293
444,2750575.095367795
446,2984686.331384077
448,3205724.5826844815
450,3407027.4535900527
452,3586481.974210495
454,3751455.666016026
456,3915194.8705991316
458,4090062.8813168346
460,4284259.475602213
462,4499361.473666595
464,4724836.002111497
466,4950178.430021837
468,5172227.941823422
470,5377366.178968016
472,5560211.5805752585
474,5718577.857610814
476,5845485.779709765
478,5934325.112149113
480,5991048.513217558
482,6024590.279456689
484,6038316.16609703
486,6041648.009920748
488,6041266.867560836
490,6041820.489361547
492,6041287.04714949
494,6041897.866481545
496,6041297.160105036
498,6041301.53855492
500,6041576.258154441
502,6041396.546223129
504,6041637.689590679
506,6041640.020136752
508,6041329.477042141
510,6041805.481344605
512,6041128.54490529
514,6041618.887629165
516,6041515.436456312
518,6041415.811696432
520,6041744.324998554
522,6041728.3503146265
524,6041248.091417713
526,6041506.108146743
528,6040914.406922648
530,6041157.548006595
532,6041592.944151163
534,6041602.838445703
536,6041101.305030906
538,6041472.072431699
540,6041040.682796911
542,6041065.121349771
544,6041119.554029958
546,6041164.391959375
548,6041339.173064691
550,6041267.767154428
552,6040947.678090716
554,6041356.903998157
556,6041628.10963549
558,6041301.227975952
560,6041563.053608754
562,6041398.286690643
564,6041530.770156015
566,6041426.25550153
568,6041063.451382874
570,6041304.66777933
572,6041486.811664981
574,6041522.379415874
576,6041255.21132161
578,6041042.996262951
580,6041075.605955958
582,6041197.111499599
584,6041339.88960622
586,6041394.8113544155
588,6041168.830261346
590,6041422.929578908
592,6041544.359104068
594,6041290.9833418615
596,6041281.474468884
598,6041649.963787191
600,6041516.789041246
602,6041588.123430858
604,6041423.675762286
606,6041035.255370998
608,6041304.26429355
610,6041327.194557631
612,6041249.388445914
614,6041318.133346436
616,6041454.698634714
618,6041690.112225874
620,6042189.080260473
622,6042557.911208173
624,6042226.6938347025
626,6041673.267863979
628,6042205.371376691
630,6043302.1896358505
632,6042306.781756462
634,6040619.981574337
636,6040410.204791453
638,6042110.979867945
640,6042212.757181822
642,6040794.429704326
644,6040247.660509841
646,6039815.385372008
648,6040740.523147667
650,6043375.131824841
652,6040384.015167704
654,6041418.916173676
656,6041024.262749427
658,6041503.253236145
660,6041551.027164778
662,6041377.491610924
664,6041484.48838989
666,6041443.750155457
668,6041107.991051836
670,6041563.760999741
672,6041267.206276446
674,6041163.483843256
676,6041536.128915831
678,6041346.24345349
680,6041150.289956291
682,6041410.314774397
684,6041560.064687422
686,6041447.9187860545
688,6040955.81893969
690,6041315.875338955
692,6041350.307975556
694,6041850.281893436
696,6041497.367671758
698,6041199.302168769
700,6041453.64627868
702,6041828.693192877
704,6040860.42770877
706,6041675.622792104
708,6041571.681644926
710,6041346.454989626
712,6041546.234560798
714,6041858.824615336
716,6041142.5820534965
718,6041286.403162461
720,6041703.1207177285
722,6041807.585318082
724,6041329.8607438
726,6041296.890614847
728,6041527.288726995
730,6041723.792105585
732,6041192.330811199
734,6041150.1016538385
736,6041704.398114255
738,6041255.137810724
740,6041344.973276121
742,6041402.044472554
744,6041509.896928869
746,6041611.23472158
748,6041281.529689905
750,6041392.455248062
752,6040981.1977447625
754,6041295.389267499
756,6041239.4416478425
758,6041271.659960353
760,6041533.037164191
762,6033170.558480699
764,5997309.196911797
766,5919816.184365741
768,5789128.623488824
770,5591227.92157777
772,5331562.926099856
774,5030824.995786329
776,4699258.250554136
778,4346757.545140255
780,3987299.429810042
782,3631624.3336451664
784,3286378.269654552
786,2964560.482130975
788,2677357.907088312
790,2431812.978824052
792,2227005.630354121
794,2056991.6675400746
796,1912122.286436368
798,1783069.2196949078
800,1663500.214270693
802,1548744.6415391257
804,1440089.3704584274
806,1338355.7413583586
808,1246002.4351940232
810,1164641.9993123675
812,1094313.8934356393
814,1033315.1507154639
816,979276.3012057306
818,928884.3489745458
820,880151.1850921786
822,831067.2044299131
824,781134.7456778135
826,731197.4373941015
828,682133.9307999852
830,635157.065687494
832,590767.9318637582
834,549817.9262336656
836,511926.9827578021
838,476508.58827418834
840,442988.8091633684
842,410512.7161371145
844,378885.83903410326
846,347759.8550145639
848,317145.038704723
850,286997.5341464601
852,257814.11993689087
854,229635.74166079867
856,202883.51438950063
858,177548.2583061767
860,153963.78261275878
862,132580.8515415665
864,113288.53811543316
866,96239.40874515912
868,81413.00428997858
870,68826.20859127876
872,58133.754868965356
874,49160.33286656182
876,41666.7751322839
878,35497.06635140222
880,30295.018445045593
882,25695.68578759554
884,21591.37521759164
886,17852.922836174053
888,14389.809163301048
890,11160.697668091325
892,8122.388938503005
894,5540.658797514908
896,3560.8201047046186
898,2067.8082667675035
900,1036.1379326991748
902,389.7262820249188
904,91.05201843704549
906,33.85408597934234
908,10.175341117526877
910,0.4798427012002451
912,-3.482973111878331
914,2.393407046365594
916,-5.54246237681494
918,-0.29287613119402345
920,-2.3379566926154904
922,4.289920058427215
924,0.9442159283387628
926,-2.7336637591896857
928,1.0006701908683229
930,-1.3057717257606596
932,1.5404292547943992
934,4.001179039549514
936,-1.414773894536123
938,3.248233771030033
940,0.4896997775772239
942,3.269850699677664
944,0.8757233738836303
946,1.835094323646329
948,-1.5911823412967454
950,0.22756291881490442
952,1.4645588048001232
954,3.043621082643513
956,0.027056986644400358
958,-0.10659459427895207
960,-0.7023202398106899
962,-2.0064684457895754
964,-3.0020412361544704
966,-2.2327748367148637
968,-2.2451702637504916
970,3.087313082970052
972,-1.474238603491238
974,-1.3750943045639343
976,0.09099228775895851
978,-4.359327552662422
980,0.17173412192045567
982,0.5883557203648353
984,-0.6237451035931326
986,0.24693956783995888
988,-1.1733774690472267
990,1.089032408027303
992,0.5823660453244227
994,0.22070109661222787
996,-2.4283186811864717
998,-1.410528741235163
