wave,flux
336,174175.72394570982
338,241337.5867756801
340,290053.48351137387
342,320541.55124963145
344,351084.132398036
346,386689.55300734384
348,442631.85879889654
350,545129.2099921519
352,678574.5612828109
354,776028.5194094959
356,788148.206097137
358,748387.4176064365
360,728830.061431158
362,745220.8111072002
364,754021.1247563085
366,727070.3980744098
368,689972.4453812478
370,685326.8161226095
372,721651.4583140512
374,771312.9706548739
376,806387.3758330425
378,824755.2588996021
380,848455.3378952366
382,904136.1229272644
384,1006529.6220595086
386,1147245.5151750862
388,1306807.913466414
390,1480601.4882271667
392,1692745.1089486496
394,1958107.1799326246
396,2259943.8583861864
398,2549386.005767594
400,2801732.7516502044
402,3022151.3978619883
404,3239960.166683107
406,3470628.411911771
408,3705337.5472479723
410,3913614.6462554354
412,4070256.745011374
414,4170736.6432958706
416,4233296.438497147
418,4286504.264919754
420,4359716.840941754
422,4485493.773886531
424,4697027.787832304
426,4990737.002133984
428,5324922.625633601
430,5638198.98370232
432,5858444.519772232
434,5983866.897557197
436,6033507.354627441
438,6041551.090741348
440,6041318.162296538
442,6041795.237873421
444,6041394.580418782
446,6041009.140748119
448,6041457.388376816
450,6041510.385356922
452,6040739.81150442
454,6041428.60215668
456,6041632.648317055
458,6040986.007873653
460,6041421.8568498
462,6041340.857486108
464,6041242.0458557075
466,6041314.09027962
468,6041277.563849954
470,6041385.535442632
472,6041413.413538566
474,6041134.622703244
476,6041160.22353247
478,6041841.209058477
480,6041484.462097635
482,6041351.451616352
484,6041330.871143687
486,6041400.919507006
488,6041487.743938879
490,6041290.155122377
492,6040997.6157722715
494,6041967.040994385
496,6041536.343263026
498,6041427.3831441505
500,6041501.98093652
502,6040939.934905587
504,6041698.504652571
506,6041468.47692849
508,6041383.480445692
510,6040994.853254813
512,6041473.562019221
514,6041270.619586545
516,6040959.843625201
518,6040919.072424989
520,6041796.43827481
522,6041514.598318552
524,6041527.104700072
526,6041487.1329772845
528,6041451.860840729
530,6041374.770735239
532,6041560.985327153
534,6041243.356961709
536,6041668.903460744
538,6041084.084113322
540,6041291.967090494
542,6041181.235455145
544,6041451.5952196615
546,6041506.752498256
548,6041554.608753028
550,6041673.431561556
552,6041441.7990564015
554,6041253.646935047
556,6041121.0661108475
558,6041514.504346856
560,6041248.120049245
562,6041248.37709002
564,6041272.196018003
566,6041376.967346131
568,6041448.631846957
570,6041086.806753523
572,6041705.039705422
574,6041642.767713446
576,6041462.415953626
578,6041269.378225149
580,6041485.321791767
582,6041719.5238124095
584,6041446.618345948
586,6041475.501155586
588,6041438.9319738
590,6041329.75068152
592,6041729.840252474
594,6041498.647461755
596,6040907.325680014
598,6041658.318392564
600,6041766.774892607
602,6041211.631712709
604,6041376.357431937
606,6041836.859930581
608,6041095.643066119
610,6040994.9588042
612,6041149.750223696
614,6041265.634465921
616,6041605.511888315
618,6041562.438356864
620,6040976.823327228
622,6040277.135318494
624,6040126.395995668
626,6040708.07232046
628,6040847.8754486535
630,6040555.497578142
632,6041567.772148136
634,6041961.388638874
636,6040809.097309042
638,6039655.570542748
640,6041138.654231715
642,6042613.48973063
644,6040488.1082468955
646,6040464.194989131
648,6042631.791399385
650,6042838.566493142
652,6041286.248141013
654,6040439.228341449
656,6042469.740721686
658,6043188.582450742
660,6041623.464778559
662,6042244.448518172
664,6043388.582936864
666,6042253.760339102
668,6041173.715673986
670,6041361.628200976
672,6041278.624772407
674,6041165.794393369
676,6041536.332251006
678,6041346.257782601
680,6041150.290855701
682,6041410.314826653
684,6041560.064690287
686,6041447.918786205
688,6040955.818939697
690,6041315.875338953
692,6041350.307975556
694,6041850.281893436
696,6041497.367671758
698,6041199.302168769
700,6041453.64627868
702,6041828.693192877
704,6040860.42770877
706,6041675.622792104
708,6041571.681644926
710,6041346.454989626
712,6041546.234560798
714,6041858.824615336
716,6041142.5820534965
718,6041286.403162461
720,6041703.1207177285
722,6041807.585318082
724,6041329.8607438
726,6041296.890614847
728,6041527.288726995
730,6041723.792105585
732,6041192.330811199
734,6041150.1016538385
736,6041704.398114255
738,6041255.137810724
740,6041344.973276121
742,6041402.044472554
744,6041509.896928869
746,6041611.23472158
748,6041281.529689905
750,6041392.455248062
752,6040981.1977447625
754,6041295.389267499
756,6041239.4416478425
758,6041271.659960353
760,6041533.037164191
762,6033170.558480699
764,5997309.196911797
766,5919816.184365741
768,5789128.623488824
770,5591227.92157777
772,5331562.926099856
774,5030824.995786329
776,4699258.250554136
778,4346757.545140255
780,3987299.429810042
782,3631624.3336451664
784,3286378.269654552
786,2964560.482130975
788,2677357.907088312
790,2431812.978824052
792,2227005.630354121
794,2056991.6675400746
796,1912122.286436368
798,1783069.2196949078
800,1663500.214270693
802,1548744.6415391257
804,1440089.3704584274
806,1338355.7413583586
808,1246002.4351940232
810,1164641.9993123675
812,1094313.8934356393
814,1033315.1507154639
816,979276.3012057306
818,928884.3489745458
820,880151.1850921786
822,831067.2044299131
824,781134.7456778135
826,731197.4373941015
828,682133.9307999852
830,635157.065687494
832,590767.9318637582
834,549817.9262336656
836,511926.9827578021
838,476508.58827418834
840,442988.8091633684
842,410512.7161371145
844,378885.83903410326
846,347759.8550145639
848,317145.038704723
850,286997.5341464601
852,257814.11993689087
854,229635.74166079867
856,202883.51438950063
858,177548.2583061767
860,153963.78261275878
862,132580.8515415665
864,113288.53811543316
866,96239.40874515912
868,81413.00428997858
870,68826.20859127876
872,58133.754868965356
874,49160.33286656182
876,41666.7751322839
878,35497.06635140222
880,30295.018445045593
882,25695.68578759554
884,21591.37521759164
886,17852.922836174053
888,14389.809163301048
890,11160.697668091325
892,8122.388938503005
894,5540.658797514908
896,3560.8201047046186
898,2067.8082667675035
900,1036.1379326991748
902,389.7262820249188
904,91.05201843704549
906,33.85408597934234
908,10.175341117526877
910,0.4798427012002451
912,-3.482973111878331
914,2.393407046365594
916,-5.54246237681494
918,-0.29287613119402345
920,-2.3379566926154904
922,4.289920058427215
924,0.9442159283387628
926,-2.7336637591896857
928,1.0006701908683229
930,-1.3057717257606596
932,1.5404292547943992
934,4.001179039549514
936,-1.414773894536123
938,3.248233771030033
940,0.4896997775772239
942,3.269850699677664
944,0.8757233738836303
946,1.835094323646329
948,-1.5911823412967454
950,0.22756291881490442
952,1.4645588048001232
954,3.043621082643513
956,0.027056986644400358
958,-0.10659459427895207
960,-0.7023202398106899
962,-2.0064684457895754
964,-3.0020412361544704
966,-2.2327748367148637
968,-2.2451702637504916
970,3.087313082970052
972,-1.474238603491238
974,-1.3750943045639343
976,0.09099228775895851
978,-4.359327552662422
980,0.17173412192045567
982,0.5883557203648353
984,-0.6237451035931326
986,0.24693956783995888
988,-1.1733774690472267
990,1.089032408027303
992,0.5823660453244227
994,0.22070109661222787
996,-2.4283186811864717
998,-1.410528741235163
