wave,flux
336,202.08833573985845
338,331.45957422674866
340,435.11617705171705
342,551.4353539396345
344,706.9715413134825
346,906.9416255167332
348,1155.0025125864183
350,1478.6628334928796
352,1880.1807816569717
354,2417.289207470825
356,3076.959077495991
358,3892.663865611095
360,4830.183166086285
362,5859.326887062906
364,7029.843845871246
366,8361.247336702501
368,10017.526384422077
370,12178.63168489281
372,15086.639246123324
374,19162.867761906713
376,25184.25793354352
378,34048.26319556034
380,46546.11328909413
382,63061.25292330513
384,83236.1366466892
386,105525.74853336475
388,127058.81009899295
390,145039.5806723044
392,158914.42896020995
394,170301.84383590412
396,182560.5879097997
398,198094.13581587272
400,218241.31011350115
402,242862.20471799112
404,271876.17141951853
406,305438.19478166604
408,344017.6232586665
410,387660.56158420746
412,436173.23360434367
414,489540.9048357025
416,548424.9661204692
418,614193.6308198664
420,688412.4981536171
422,771739.9124088507
424,862841.1617486367
426,959280.3599577486
428,1057186.6064531333
430,1153927.1519085898
432,1248499.8403803774
434,1343202.3586567948
436,1442108.6402743012
438,1550153.3753484495
440,1670535.4737268097
442,1804643.3037461273
444,1952294.5539579976
446,2110796.0167994173
448,2278128.9728946975
450,2452779.7575280936
452,2634257.829821294
454,2824136.8520946326
456,3024214.7115716543
458,3235175.987022838
460,3459036.321449954
462,3696111.4866062687
464,3946451.9219433814
466,4213971.551104415
468,4502067.009239836
470,4801152.417791623
472,5097615.256034074
474,5374205.2968471255
476,5613737.111324391
478,5795346.608067859
480,5916934.541804766
482,5991423.487094413
484,6028095.7607929325
486,6040324.669426888
488,6041744.767255144
490,6041170.746545288
492,6041384.0265525095
494,6041405.654806103
496,6041428.856115175
498,6041606.248033973
500,6041290.950208108
502,6041530.79707506
504,6041513.432921716
506,6041342.275566384
508,6041097.636733757
510,6041897.372587884
512,6041625.755801957
514,6041458.973881652
516,6041483.105533301
518,6041045.931515081
520,6041404.562627581
522,6041645.8083199095
524,6041657.076343453
526,6041642.401734353
528,6041648.25616663
530,6041177.858295471
532,6041486.398834714
534,6041430.584662384
536,6041083.612101497
538,6041816.810091567
540,6041491.719347409
542,6041410.1395120025
544,6041636.088611067
546,6041684.316244818
548,6041272.992971624
550,6041341.290419058
552,6041248.397824917
554,6041397.610897849
556,6041593.085708859
558,6041814.054091819
560,6041778.621334188
562,6041321.975284264
564,6041620.8466319665
566,6041782.09699954
568,6041725.309435927
570,6041371.928945385
572,6041127.714019235
574,6041523.192319773
576,6041139.158192957
578,6041228.091350253
580,6041622.271159231
582,6041571.63233887
584,6041595.862082722
586,6041556.952904468
588,6041114.749715934
590,6041657.766947193
592,6041643.033076546
594,6041102.963102704
596,6041051.800732357
598,6041204.017106376
600,6041380.10691618
602,6041603.860941742
604,6041662.084193999
606,6041637.159902413
608,6041757.059751929
610,6041453.317900245
612,6041249.030258371
614,6041356.782695171
616,6041624.577536121
618,6042237.448320912
620,6041675.359319976
622,6040212.386871154
624,6040038.135672093
626,6042017.353014219
628,6042983.384476028
630,6041652.177240691
632,6041094.398127039
634,6040336.073092919
636,6040011.808774303
638,6041834.286298128
640,6042154.709446386
642,6040687.242023867
644,6040015.305649897
646,6040710.690843811
648,6041690.890964461
650,6041582.136585387
652,6041130.677955234
654,6040897.290544334
656,6040892.758218356
658,6041108.280393912
660,6041573.101773127
662,6041377.031413538
664,6041484.399151083
666,6041443.743948983
668,6041107.990764257
670,6041563.760992512
672,6041267.206276649
674,6041163.483843297
676,6041536.128915834
678,6041346.243453491
680,6041150.289956291
682,6041410.314774397
684,6041560.064687422
686,6041447.9187860545
688,6040955.81893969
690,6041315.875338955
692,6041350.307975556
694,6041850.281893436
696,6041497.367671758
698,6041199.302168769
700,6041453.64627868
702,6041828.693192877
704,6040860.42770877
706,6041675.622792104
708,6041571.681644926
710,6041346.454989626
712,6041546.234560798
714,6041858.824615336
716,6041142.5820534965
718,6041286.403162461
720,6041703.1207177285
722,6041807.585318082
724,6041329.8607438
726,6041296.890614847
728,6041527.288726995
730,6041723.792105585
732,6041192.330811199
734,6041150.1016538385
736,6041704.398114255
738,6041255.137810724
740,6041344.973276121
742,6041402.044472554
744,6041509.896928869
746,6041611.23472158
748,6041281.529689905
750,6041392.455248062
752,6040981.1977447625
754,6041295.389267499
756,6041239.4416478425
758,6041271.659960353
760,6041533.037164191
762,6033170.558480699
764,5997309.196911797
766,5919816.184365741
768,5789128.623488824
770,5591227.92157777
772,5331562.926099856
774,5030824.995786329
776,4699258.250554136
778,4346757.545140255
780,3987299.429810042
782,3631624.3336451664
784,3286378.269654552
786,2964560.482130975
788,2677357.907088312
790,2431812.978824052
792,2227005.630354121
794,2056991.6675400746
796,1912122.286436368
798,1783069.2196949078
800,1663500.214270693
802,1548744.6415391257
804,1440089.3704584274
806,1338355.7413583586
808,1246002.4351940232
810,1164641.9993123675
812,1094313.8934356393
814,1033315.1507154639
816,979276.3012057306
818,928884.3489745458
820,880151.1850921786
822,831067.2044299131
824,781134.7456778135
826,731197.4373941015
828,682133.9307999852
830,635157.065687494
832,590767.9318637582
834,549817.9262336656
836,511926.9827578021
838,476508.58827418834
840,442988.8091633684
842,410512.7161371145
844,378885.83903410326
846,347759.8550145639
848,317145.038704723
850,286997.5341464601
852,257814.11993689087
854,229635.74166079867
856,202883.51438950063
858,177548.2583061767
860,153963.78261275878
862,132580.8515415665
864,113288.53811543316
866,96239.40874515912
868,81413.00428997858
870,68826.20859127876
872,58133.754868965356
874,49160.33286656182
876,41666.7751322839
878,35497.06635140222
880,30295.018445045593
882,25695.68578759554
884,21591.37521759164
886,17852.922836174053
888,14389.809163301048
890,11160.697668091325
892,8122.388938503005
894,5540.658797514908
896,3560.8201047046186
898,2067.8082667675035
900,1036.1379326991748
902,389.7262820249188
904,91.05201843704549
906,33.85408597934234
908,10.175341117526877
910,0.4798427012002451
912,-3.482973111878331
914,2.393407046365594
916,-5.54246237681494
918,-0.29287613119402345
920,-2.3379566926154904
922,4.289920058427215
924,0.9442159283387628
926,-2.7336637591896857
928,1.0006701908683229
930,-1.3057717257606596
932,1.5404292547943992
934,4.001179039549514
936,-1.414773894536123
938,3.248233771030033
940,0.4896997775772239
942,3.269850699677664
944,0.8757233738836303
946,1.835094323646329
948,-1.5911823412967454
950,0.22756291881490442
952,1.4645588048001232
954,3.043621082643513
956,0.027056986644400358
958,-0.10659459427895207
960,-0.7023202398106899
962,-2.0064684457895754
964,-3.0020412361544704
966,-2.2327748367148637
968,-2.2451702637504916
970,3.087313082970052
972,-1.474238603491238
974,-1.3750943045639343
976,0.09099228775895851
978,-4.359327552662422
980,0.17173412192045567
982,0.5883557203648353
984,-0.6237451035931326
986,0.24693956783995888
988,-1.1733774690472267
990,1.089032408027303
992,0.5823660453244227
994,0.22070109661222787
996,-2.4283186811864717
998,-1.410528741235163
