wave,flux
336,3322.5118747313486
338,4692.202425346276
340,6608.942242994748
342,8673.467220700812
344,11257.037965459545
346,14492.362491686103
348,18665.887260530235
350,24271.080095344
352,30683.065548895196
354,37535.70217930534
356,44892.05326453173
358,52747.03157113508
360,61315.15042377726
362,70609.53666059024
364,81003.32666489926
366,93731.08905860006
368,110640.30513947674
370,134534.08649317673
372,172117.5700181508
374,239077.9465916282
376,354075.83150354493
378,520371.5000465089
380,712919.5077814127
382,891749.8445634303
384,1031542.2307291642
386,1141817.4247711767
388,1255565.2175094148
390,1402152.8639509485
392,1585636.9954859077
394,1785327.6596080153
396,1982839.104758774
398,2180108.34603641
400,2400187.6518097543
402,2663363.4877068526
404,2977519.5334860287
406,3340881.758716467
408,3738706.1157433265
410,4133425.73160031
412,4471151.046726397
414,4706434.942617444
416,4832111.65719291
418,4881570.0939719835
420,4906797.958159748
422,4957719.863211145
424,5066975.480161125
426,5242486.622412018
428,5458840.810463897
430,5676302.945848089
432,5853415.986487186
434,5964933.872037865
436,6020849.700331724
438,6039733.322879208
440,6041286.131293893
442,6041431.309462083
444,6041270.9748036545
446,6041178.721807417
448,6041552.2258601645
450,6041294.104840191
452,6041423.342362701
454,6041397.115033162
456,6041517.143444153
458,6041264.610842412
460,6041368.385256672
462,6041765.294588852
464,6041114.631192372
466,6041645.881878633
468,6041594.696868325
470,6041182.811038894
472,6041873.129310016
474,6041070.626801603
476,6041226.317683877
478,6041001.938419832
480,6041398.369863163
482,6041357.515682372
484,6041326.1472011255
486,6041320.454792917
488,6041469.342448768
490,6041495.890859285
492,6041227.133207294
494,6041413.535620187
496,6041241.423529783
498,6041430.669086764
500,6041786.800496358
502,6041157.1972964145
504,6041590.509457543
506,6041224.859629195
508,6041566.089012019
510,6041025.303782938
512,6041726.381708046
514,6041517.344321187
516,6041052.627005798
518,6041531.335223952
520,6041520.603850836
522,6041675.336674117
524,6041332.2328858515
526,6041381.959235515
528,6041574.7773380745
530,6041325.952890357
532,6041367.748825157
534,6041522.627680189
536,6041438.739485301
538,6041644.893838783
540,6041145.587261372
542,6041654.83342822
544,6041336.7727151755
546,6041044.299256722
548,6041091.400953227
550,6040928.980338433
552,6041425.295503077
554,6041531.615614626
556,6041483.844819617
558,6041505.598092772
560,6041806.88485775
562,6041697.988002137
564,6041640.290576799
566,6041366.571128016
568,6041405.360176456
570,6041059.5189907085
572,6041434.98603403
574,6041784.808200033
576,6041904.974992637
578,6041219.4103782475
580,6041010.134076828
582,6041496.516256797
584,6041465.210427264
586,6041423.98630397
588,6041835.927862391
590,6041601.833768319
592,6041653.413644108
594,6041527.064391137
596,6041002.691926116
598,6041086.955126712
600,6040927.481879093
602,6041623.133914565
604,6041768.805985826
606,6041158.734006489
608,6041593.280150109
610,6041379.815189603
612,6041054.469923449
614,6041359.962386663
616,6042049.243884896
618,6042463.918215926
620,6042199.102487001
622,6041701.16788419
624,6041568.138702465
626,6041229.916905638
628,6041353.129006838
630,6041849.2974209525
632,6041284.165474584
634,6041308.72482895
636,6042317.0268889675
638,6042765.511343191
640,6041835.590274313
642,6041093.630004439
644,6042169.379847687
646,6042132.639489085
648,6041932.524320959
650,6043729.400391865
652,6042537.993808403
654,6039460.547690685
656,6040262.812454822
658,6041934.382429229
660,6041964.249095637
662,6041524.4725023545
664,6041715.14443592
666,6042796.60530977
668,6043456.922361933
670,6042791.779671694
672,6041274.107199725
674,6041161.669230151
676,6041535.969224566
678,6041346.232199982
680,6041150.289249931
682,6041410.314733355
684,6041560.064685172
686,6041447.918785935
688,6040955.818939682
690,6041315.875338953
692,6041350.307975556
694,6041850.281893436
696,6041497.367671758
698,6041199.302168769
700,6041453.64627868
702,6041828.693192877
704,6040860.42770877
706,6041675.622792104
708,6041571.681644926
710,6041346.454989626
712,6041546.234560798
714,6041858.824615336
716,6041142.5820534965
718,6041286.403162461
720,6041703.1207177285
722,6041807.585318082
724,6041329.8607438
726,6041296.890614847
728,6041527.288726995
730,6041723.792105585
732,6041192.330811199
734,6041150.1016538385
736,6041704.398114255
738,6041255.137810724
740,6041344.973276121
742,6041402.044472554
744,6041509.896928869
746,6041611.23472158
748,6041281.529689905
750,6041392.455248062
752,6040981.1977447625
754,6041295.389267499
756,6041239.4416478425
758,6041271.659960353
760,6041533.037164191
762,6033170.558480699
764,5997309.196911797
766,5919816.184365741
768,5789128.623488824
770,5591227.92157777
772,5331562.926099856
774,5030824.995786329
776,4699258.250554136
778,4346757.545140255
780,3987299.429810042
782,3631624.3336451664
784,3286378.269654552
786,2964560.482130975
788,2677357.907088312
790,2431812.978824052
792,2227005.630354121
794,2056991.6675400746
796,1912122.286436368
798,1783069.2196949078
800,1663500.214270693
802,1548744.6415391257
804,1440089.3704584274
806,1338355.7413583586
808,1246002.4351940232
810,1164641.9993123675
812,1094313.8934356393
814,1033315.1507154639
816,979276.3012057306
818,928884.3489745458
820,880151.1850921786
822,831067.2044299131
824,781134.7456778135
826,731197.4373941015
828,682133.9307999852
830,635157.065687494
832,590767.9318637582
834,549817.9262336656
836,511926.9827578021
838,476508.58827418834
840,442988.8091633684
842,410512.7161371145
844,378885.83903410326
846,347759.8550145639
848,317145.038704723
850,286997.5341464601
852,257814.11993689087
854,229635.74166079867
856,202883.51438950063
858,177548.2583061767
860,153963.78261275878
862,132580.8515415665
864,113288.53811543316
866,96239.40874515912
868,81413.00428997858
870,68826.20859127876
872,58133.754868965356
874,49160.33286656182
876,41666.7751322839
878,35497.06635140222
880,30295.018445045593
882,25695.68578759554
884,21591.37521759164
886,17852.922836174053
888,14389.809163301048
890,11160.697668091325
892,8122.388938503005
894,5540.658797514908
896,3560.8201047046186
898,2067.8082667675035
900,1036.1379326991748
902,389.7262820249188
904,91.05201843704549
906,33.85408597934234
908,10.175341117526877
910,0.4798427012002451
912,-3.482973111878331
914,2.393407046365594
916,-5.54246237681494
918,-0.29287613119402345
920,-2.3379566926154904
922,4.289920058427215
924,0.9442159283387628
926,-2.7336637591896857
928,1.0006701908683229
930,-1.3057717257606596
932,1.5404292547943992
934,4.001179039549514
936,-1.414773894536123
938,3.248233771030033
940,0.4896997775772239
942,3.269850699677664
944,0.8757233738836303
946,1.835094323646329
948,-1.5911823412967454
950,0.22756291881490442
952,1.4645588048001232
954,3.043621082643513
956,0.027056986644400358
958,-0.10659459427895207
960,-0.7023202398106899
962,-2.0064684457895754
964,-3.0020412361544704
966,-2.2327748367148637
968,-2.2451702637504916
970,3.087313082970052
972,-1.474238603491238
974,-1.3750943045639343
976,0.09099228775895851
978,-4.359327552662422
980,0.17173412192045567
982,0.5883557203648353
984,-0.6237451035931326
986,0.24693956783995888
988,-1.1733774690472267
990,1.089032408027303
992,0.5823660453244227
994,0.22070109661222787
996,-2.4283186811864717
998,-1.410528741235163
