wave,flux
336,3052.6379660123716
338,7719.879370781224
340,14364.065719883298
342,20129.593531449016
344,25537.38097011602
346,33272.20685579706
348,45345.63690568516
350,60757.20579892913
352,77379.73269052748
354,96408.73644442891
356,120669.23857848717
358,150487.7060766336
360,182847.3315406892
362,216094.19855400219
364,252249.59251789248
366,294621.77037103183
368,344258.7573122573
370,403851.2665152195
372,475862.01152207283
374,563903.961633184
376,679252.3972662856
378,841843.1276263789
380,1073777.1900404028
382,1399472.9277919733
384,1857795.9658609654
386,2505648.01497804
388,3379515.819359294
390,4369244.521004007
392,5238405.696599652
394,5776388.788571556
396,5997504.350671933
398,6041505.3248134665
400,6041591.574435695
402,6040686.772373192
404,6041331.8224460455
406,6041537.626924691
408,6041316.407550267
410,6041180.598531146
412,6040938.534648492
414,6041435.196126567
416,6041671.930610089
418,6040985.969165158
420,6041312.979841103
422,6041805.664208723
424,6041423.674596204
426,6041749.588321562
428,6041648.520092705
430,6041360.23965143
432,6041391.56430898
434,6041499.1721898755
436,6041302.150922525
438,6041509.599541312
440,6041314.765058122
442,6041197.2125178585
444,6041611.893332548
446,6041257.088761612
448,6041585.364483554
450,6041538.073565362
452,6041586.994725896
454,6041373.75013361
456,6041115.776303956
458,6041468.677949892
460,6041663.580506681
462,6041251.094782598
464,6041305.036151968
466,6041593.614415092
468,6041862.69812385
470,6041263.983264005
472,6041407.117901033
474,6041662.5090073515
476,6041471.746530332
478,6041615.06237904
480,6041445.464890444
482,6041578.978408912
484,6041405.777714385
486,6041350.653060348
488,6041464.181710148
490,6041367.984027239
492,6041558.0562019255
494,6041000.997296585
496,6041272.050402189
498,6041443.012289057
500,6041245.259367269
502,6041526.272555809
504,6041565.128569519
506,6041529.099374763
508,6041498.916200347
510,6041526.406843975
512,6041486.304053875
514,6041730.102424627
516,6041686.742891947
518,6041709.904401975
520,6041100.49043825
522,6041509.134467876
524,6041709.38437373
526,6041004.634867782
528,6040773.069355208
530,6041092.68001308
532,6041136.096853536
534,6041197.352974603
536,6041446.919281454
538,6041283.288210553
540,6041373.652755434
542,6041455.250792309
544,6041472.560279141
546,6041478.332065763
548,6041476.31662285
550,6041466.863381305
552,6041343.22922258
554,6041254.399148029
556,6041487.092368984
558,6041355.02169691
560,6041674.034970437
562,6041627.415077441
564,6041178.436346608
566,6041607.0963455
568,6041209.024646026
570,6041683.153297547
572,6041117.694142567
574,6041361.438765412
576,6041474.745334025
578,6041004.247500682
580,6041399.229475488
582,6042055.0724070715
584,6041560.858572996
586,6041135.348332791
588,6041591.991544713
590,6041721.343775921
592,6041773.072768106
594,6041499.818834566
596,6041110.365673684
598,6041474.551820338
600,6041603.235210235
602,6041669.930452913
604,6041466.774813049
606,6041158.462431307
608,6041300.159872068
610,6041201.41109629
612,6041419.537874337
614,6041533.622271219
616,6040968.163763577
618,6041213.594148132
620,6041617.175884693
622,6041268.302484677
624,6040544.538729349
626,6041205.073793933
628,6041761.058263412
630,6041556.669542886
632,6042434.868925983
634,6041637.941749278
636,6040095.024072012
638,6041595.549881793
640,6043273.768428537
642,6042580.151688312
644,6039989.659037862
646,6040366.5119995335
648,6042809.305313673
650,6042933.796278432
652,6041235.607812705
654,6039999.602843023
656,6041103.503269698
658,6041721.733832995
660,6041263.183199758
662,6042736.592141284
664,6042916.098124037
666,6039713.967053758
668,6039783.894602226
670,6043222.871741033
672,6044383.502093174
674,6043111.285769086
676,6041265.072482871
678,6040768.638304926
680,6041449.369393712
682,6041374.214145986
684,6041558.085789299
686,6041447.815089419
688,6040955.813666439
690,6041315.8750716485
692,6041350.307961306
694,6041850.281892564
696,6041497.367671692
698,6041199.302168761
700,6041453.646278679
702,6041828.693192877
704,6040860.42770877
706,6041675.622792104
708,6041571.681644926
710,6041346.454989626
712,6041546.234560798
714,6041858.824615336
716,6041142.5820534965
718,6041286.403162461
720,6041703.1207177285
722,6041807.585318082
724,6041329.8607438
726,6041296.890614847
728,6041527.288726995
730,6041723.792105585
732,6041192.330811199
734,6041150.1016538385
736,6041704.398114255
738,6041255.137810724
740,6041344.973276121
742,6041402.044472554
744,6041509.896928869
746,6041611.23472158
748,6041281.529689905
750,6041392.455248062
752,6040981.1977447625
754,6041295.389267499
756,6041239.4416478425
758,6041271.659960353
760,6041533.037164191
762,6033170.558480699
764,5997309.196911797
766,5919816.184365741
768,5789128.623488824
770,5591227.92157777
772,5331562.926099856
774,5030824.995786329
776,4699258.250554136
778,4346757.545140255
780,3987299.429810042
782,3631624.3336451664
784,3286378.269654552
786,2964560.482130975
788,2677357.907088312
790,2431812.978824052
792,2227005.630354121
794,2056991.6675400746
796,1912122.286436368
798,1783069.2196949078
800,1663500.214270693
802,1548744.6415391257
804,1440089.3704584274
806,1338355.7413583586
808,1246002.4351940232
810,1164641.9993123675
812,1094313.8934356393
814,1033315.1507154639
816,979276.3012057306
818,928884.3489745458
820,880151.1850921786
822,831067.2044299131
824,781134.7456778135
826,731197.4373941015
828,682133.9307999852
830,635157.065687494
832,590767.9318637582
834,549817.9262336656
836,511926.9827578021
838,476508.58827418834
840,442988.8091633684
842,410512.7161371145
844,378885.83903410326
846,347759.8550145639
848,317145.038704723
850,286997.5341464601
852,257814.11993689087
854,229635.74166079867
856,202883.51438950063
858,177548.2583061767
860,153963.78261275878
862,132580.8515415665
864,113288.53811543316
866,96239.40874515912
868,81413.00428997858
870,68826.20859127876
872,58133.754868965356
874,49160.33286656182
876,41666.7751322839
878,35497.06635140222
880,30295.018445045593
882,25695.68578759554
884,21591.37521759164
886,17852.922836174053
888,14389.809163301048
890,11160.697668091325
892,8122.388938503005
894,5540.658797514908
896,3560.8201047046186
898,2067.8082667675035
900,1036.1379326991748
902,389.7262820249188
904,91.05201843704549
906,33.85408597934234
908,10.175341117526877
910,0.4798427012002451
912,-3.482973111878331
914,2.393407046365594
916,-5.54246237681494
918,-0.29287613119402345
920,-2.3379566926154904
922,4.289920058427215
924,0.9442159283387628
926,-2.7336637591896857
928,1.0006701908683229
930,-1.3057717257606596
932,1.5404292547943992
934,4.001179039549514
936,-1.414773894536123
938,3.248233771030033
940,0.4896997775772239
942,3.269850699677664
944,0.8757233738836303
946,1.835094323646329
948,-1.5911823412967454
950,0.22756291881490442
952,1.4645588048001232
954,3.043621082643513
956,0.027056986644400358
958,-0.10659459427895207
960,-0.7023202398106899
962,-2.0064684457895754
964,-3.0020412361544704
966,-2.2327748367148637
968,-2.2451702637504916
970,3.087313082970052
972,-1.474238603491238
974,-1.3750943045639343
976,0.09099228775895851
978,-4.359327552662422
980,0.17173412192045567
982,0.5883557203648353
984,-0.6237451035931326
986,0.24693956783995888
988,-1.1733774690472267
990,1.089032408027303
992,0.5823660453244227
994,0.22070109661222787
996,-2.4283186811864717
998,-1.410528741235163
