wave,flux
336,20155.790283136866
338,27482.049419467134
340,36610.073348126185
342,48426.86835059759
344,61932.1222933333
346,76582.34406759175
348,94013.18489650695
350,115375.34948423161
352,141650.22467986456
354,173684.84917604283
356,209333.20566525112
358,244879.91078193113
360,279613.74742603657
362,314922.9089605973
364,353246.016686975
366,400179.25076077855
368,464501.5259343602
370,565835.1207319882
372,754771.464773038
374,1123959.9074687785
376,1769238.2183553528
378,2691451.8445915254
380,3742022.159323202
382,4705439.552993519
384,5414466.852524464
386,5825135.475722324
388,5993955.203992474
390,6039015.827656811
392,6041280.231785905
394,6041234.9373877775
396,6041603.734274579
398,6041558.277190801
400,6042086.922955055
402,6041216.983841754
404,6041537.692794393
406,6041440.790226754
408,6041323.392886275
410,6041252.612922957
412,6041745.450636525
414,6040918.877930488
416,6041128.564662946
418,6041072.817873385
420,6041370.231464115
422,6041360.643282262
424,6041613.881861335
426,6041183.370227665
428,6041236.335411762
430,6041631.234872015
432,6040811.620833931
434,6041784.612665185
436,6041413.832522123
438,6041330.25244806
440,6041411.161649963
442,6041602.491059732
444,6041118.524343461
446,6041727.247135636
448,6041750.642068909
450,6041200.304842455
452,6041628.417080382
454,6041223.438831839
456,6041317.34516951
458,6041625.24971245
460,6041504.745506616
462,6041436.677959455
464,6041212.485165335
466,6041624.251334098
468,6041284.454964907
470,6041238.725460957
472,6041283.8983716685
474,6041607.005571569
476,6041212.984244522
478,6041699.704251267
480,6041213.555480351
482,6041404.820819542
484,6040928.447928076
486,6041373.029009776
488,6041146.417444082
490,6041814.926235528
492,6041205.619715085
494,6041427.100249396
496,6041232.444329192
498,6041634.31908822
500,6041671.757083279
502,6041192.146651453
504,6041394.759158513
506,6041353.126933451
508,6041267.533291364
510,6041597.552442642
512,6041395.314982707
514,6041307.470265361
516,6041548.37284282
518,6041276.372279514
520,6041677.753256235
522,6041383.073468679
524,6041384.268506343
526,6040980.278574303
528,6041476.999668452
530,6041151.522489563
532,6041518.177650057
534,6041414.985069648
536,6041297.086132709
538,6041459.877856613
540,6041287.949424
542,6041319.4992477195
544,6041759.8796795355
546,6041456.7484515915
548,6041719.637621907
550,6041561.082524367
552,6041080.5662414385
554,6040977.175785371
556,6041164.332547353
558,6041493.351296728
560,6041498.682781565
562,6041499.199639372
564,6041437.927332541
566,6041229.013406752
568,6041700.2785121985
570,6041571.458551345
572,6041570.580989906
574,6041148.355141979
576,6040911.230863472
578,6040987.156427895
580,6041190.655855841
582,6041311.747492258
584,6041194.712136861
586,6041047.382338487
588,6041064.764219749
590,6041015.589480385
592,6041248.0705099
594,6041593.431648676
596,6041409.7590512615
598,6040923.092682045
600,6041410.668874272
602,6041616.1024134485
604,6041454.553436032
606,6041322.224150662
608,6041089.2853863565
610,6041150.180300913
612,6041254.442506691
614,6041297.333103637
616,6041212.481862791
618,6040499.968323701
620,6040118.591571095
622,6041410.091483214
624,6043613.06436382
626,6042086.941734539
628,6039694.338204552
630,6039890.920792813
632,6041213.392102477
634,6041461.578178382
636,6040377.69337358
638,6039363.395532617
640,6038825.87322697
642,6039582.423575254
644,6041870.189226315
646,6043003.960516294
648,6042845.0074756965
650,6042847.880514995
652,6042166.858494872
654,6041468.472388443
656,6042341.811870955
658,6042814.77588493
660,6041968.281640995
662,6041308.914067946
664,6041250.550729045
666,6041652.088292668
668,6041115.722285087
670,6041563.955346265
672,6041267.20083991
674,6041163.482743163
676,6041536.128819021
678,6041346.243446666
680,6041150.289955864
682,6041410.314774372
684,6041560.064687422
686,6041447.9187860545
688,6040955.81893969
690,6041315.875338955
692,6041350.307975556
694,6041850.281893436
696,6041497.367671758
698,6041199.302168769
700,6041453.64627868
702,6041828.693192877
704,6040860.42770877
706,6041675.622792104
708,6041571.681644926
710,6041346.454989626
712,6041546.234560798
714,6041858.824615336
716,6041142.5820534965
718,6041286.403162461
720,6041703.1207177285
722,6041807.585318082
724,6041329.8607438
726,6041296.890614847
728,6041527.288726995
730,6041723.792105585
732,6041192.330811199
734,6041150.1016538385
736,6041704.398114255
738,6041255.137810724
740,6041344.973276121
742,6041402.044472554
744,6041509.896928869
746,6041611.23472158
748,6041281.529689905
750,6041392.455248062
752,6040981.1977447625
754,6041295.389267499
756,6041239.4416478425
758,6041271.659960353
760,6041533.037164191
762,6033170.558480699
764,5997309.196911797
766,5919816.184365741
768,5789128.623488824
770,5591227.92157777
772,5331562.926099856
774,5030824.995786329
776,4699258.250554136
778,4346757.545140255
780,3987299.429810042
782,3631624.3336451664
784,3286378.269654552
786,2964560.482130975
788,2677357.907088312
790,2431812.978824052
792,2227005.630354121
794,2056991.6675400746
796,1912122.286436368
798,1783069.2196949078
800,1663500.214270693
802,1548744.6415391257
804,1440089.3704584274
806,1338355.7413583586
808,1246002.4351940232
810,1164641.9993123675
812,1094313.8934356393
814,1033315.1507154639
816,979276.3012057306
818,928884.3489745458
820,880151.1850921786
822,831067.2044299131
824,781134.7456778135
826,731197.4373941015
828,682133.9307999852
830,635157.065687494
832,590767.9318637582
834,549817.9262336656
836,511926.9827578021
838,476508.58827418834
840,442988.8091633684
842,410512.7161371145
844,378885.83903410326
846,347759.8550145639
848,317145.038704723
850,286997.5341464601
852,257814.11993689087
854,229635.74166079867
856,202883.51438950063
858,177548.2583061767
860,153963.78261275878
862,132580.8515415665
864,113288.53811543316
866,96239.40874515912
868,81413.00428997858
870,68826.20859127876
872,58133.754868965356
874,49160.33286656182
876,41666.7751322839
878,35497.06635140222
880,30295.018445045593
882,25695.68578759554
884,21591.37521759164
886,17852.922836174053
888,14389.809163301048
890,11160.697668091325
892,8122.388938503005
894,5540.658797514908
896,3560.8201047046186
898,2067.8082667675035
900,1036.1379326991748
902,389.7262820249188
904,91.05201843704549
906,33.85408597934234
908,10.175341117526877
910,0.4798427012002451
912,-3.482973111878331
914,2.393407046365594
916,-5.54246237681494
918,-0.29287613119402345
920,-2.3379566926154904
922,4.289920058427215
924,0.9442159283387628
926,-2.7336637591896857
928,1.0006701908683229
930,-1.3057717257606596
932,1.5404292547943992
934,4.001179039549514
936,-1.414773894536123
938,3.248233771030033
940,0.4896997775772239
942,3.269850699677664
944,0.8757233738836303
946,1.835094323646329
948,-1.5911823412967454
950,0.22756291881490442
952,1.4645588048001232
954,3.043621082643513
956,0.027056986644400358
958,-0.10659459427895207
960,-0.7023202398106899
962,-2.0064684457895754
964,-3.0020412361544704
966,-2.2327748367148637
968,-2.2451702637504916
970,3.087313082970052
972,-1.474238603491238
974,-1.3750943045639343
976,0.09099228775895851
978,-4.359327552662422
980,0.17173412192045567
982,0.5883557203648353
984,-0.6237451035931326
986,0.24693956783995888
988,-1.1733774690472267
990,1.089032408027303
992,0.5823660453244227
994,0.22070109661222787
996,-2.4283186811864717
998,-1.410528741235163
