wave,flux
336,-4.655307465061458
338,-2.4627662353835147
340,-0.9728719761884307
342,0.9336688946031269
344,1.7483885961075676
346,-2.2077329545151496
348,-3.177002371633476
350,0.22094600964333658
352,0.9797559699218014
354,0.8538975287281237
356,24.8045977433044
358,779.7156423890642
360,3331.136574627655
362,7767.307618877188
364,13310.278021260787
366,19437.16835716184
368,26182.029350370758
370,33727.67234617548
372,42181.78237542313
374,51441.42082055928
376,61639.39057920565
378,73003.53505648856
380,85894.65165258382
382,100921.01565624458
384,118631.6765249642
386,138757.38137924395
388,160443.16590078836
390,183522.45126911122
392,209111.79832907685
394,237119.7411153537
396,265872.3399626524
398,293154.0357901568
400,319262.2750793482
402,345422.5116283309
404,373117.7756872305
406,404163.9802366364
408,441231.08098064817
410,486266.00603601435
412,540732.1711441075
414,606710.950813386
416,692653.8451780101
418,819317.5193121625
420,1025642.0714389469
422,1365496.5523478577
424,1890669.3872246519
426,2622960.633468732
428,3496195.3300563633
430,4377224.822553138
432,5126100.644602588
434,5633117.871630517
436,5907651.630109568
438,6018948.5445627095
440,6041554.110694555
442,6041178.344447446
444,6041168.336915447
446,6041495.936649117
448,6041377.56258958
450,6041367.401816743
452,6041104.850947453
454,6041604.337640579
456,6041684.59221045
458,6041715.661094036
460,6041177.95769993
462,6041395.005990172
464,6041564.304349127
466,6040950.393536707
468,6041681.235689892
470,6041367.896146623
472,6041554.795598024
474,6041310.470665819
476,6041225.163503494
478,6041599.160917641
480,6041637.101134553
482,6041327.782114989
484,6041441.16420809
486,6041521.856366391
488,6041921.974144547
490,6041459.836341051
492,6041745.040199983
494,6041542.932491625
496,6041260.986387262
498,6041307.188521636
500,6041588.311777941
502,6041142.839606827
504,6041428.0268990565
506,6041390.107773979
508,6041271.7397382315
510,6041103.463939742
512,6041200.21315035
514,6041517.250986177
516,6041492.8841234585
518,6041826.667244729
520,6041106.6437270995
522,6041591.390101197
524,6041207.5007000305
526,6041034.479557538
528,6041358.872803538
530,6041374.289021168
532,6041692.529390517
534,6041381.364140519
536,6041218.751021415
538,6041486.77113867
540,6041266.696694005
542,6041423.708259333
544,6041901.120707234
546,6041523.004501815
548,6041307.626385202
550,6041314.849342677
552,6041657.587597391
554,6041335.673633583
556,6041528.4772740435
558,6041514.8906559665
560,6041422.175094782
562,6041341.346400803
564,6041264.480653736
566,6041529.023361296
568,6041405.892048571
570,6041467.577450446
572,6041246.765454234
574,6041216.0187588185
576,6041596.2848599125
578,6041870.193101854
580,6041532.606311624
582,6041018.651273304
584,6041253.816814775
586,6042061.121705955
588,6042055.878307909
590,6041578.158749395
592,6041608.678764343
594,6041617.473164881
596,6041373.236173855
598,6041575.427943576
600,6041462.905780943
602,6041265.037564521
604,6041317.556398581
606,6041553.686603137
608,6041676.38287043
610,6041627.457614729
612,6041679.9208542155
614,6041504.550584069
616,6041111.964468219
618,6041860.558549601
620,6041695.930771403
622,6040553.987653698
624,6040483.282776382
626,6041165.707105794
628,6041621.624289865
630,6041445.134162804
632,6041146.985809176
634,6040876.857148253
636,6040657.791367298
638,6040512.818560409
640,6040464.968821689
642,6040537.272245241
644,6040752.758925164
646,6041134.458955567
648,6041641.5857074885
650,6041399.980986112
652,6041705.720942899
654,6041397.689665878
656,6041151.2169122845
658,6041511.431222209
660,6041551.262288626
662,6041377.486709211
664,6041484.487439378
666,6041443.750089349
668,6041107.991048771
670,6041563.760999665
672,6041267.2062764475
674,6041163.483843256
676,6041536.128915831
678,6041346.24345349
680,6041150.289956291
682,6041410.314774397
684,6041560.064687422
686,6041447.9187860545
688,6040955.81893969
690,6041315.875338955
692,6041350.307975556
694,6041850.281893436
696,6041497.367671758
698,6041199.302168769
700,6041453.64627868
702,6041828.693192877
704,6040860.42770877
706,6041675.622792104
708,6041571.681644926
710,6041346.454989626
712,6041546.234560798
714,6041858.824615336
716,6041142.5820534965
718,6041286.403162461
720,6041703.1207177285
722,6041807.585318082
724,6041329.8607438
726,6041296.890614847
728,6041527.288726995
730,6041723.792105585
732,6041192.330811199
734,6041150.1016538385
736,6041704.398114255
738,6041255.137810724
740,6041344.973276121
742,6041402.044472554
744,6041509.896928869
746,6041611.23472158
748,6041281.529689905
750,6041392.455248062
752,6040981.1977447625
754,6041295.389267499
756,6041239.4416478425
758,6041271.659960353
760,6041533.037164191
762,6033170.558480699
764,5997309.196911797
766,5919816.184365741
768,5789128.623488824
770,5591227.92157777
772,5331562.926099856
774,5030824.995786329
776,4699258.250554136
778,4346757.545140255
780,3987299.429810042
782,3631624.3336451664
784,3286378.269654552
786,2964560.482130975
788,2677357.907088312
790,2431812.978824052
792,2227005.630354121
794,2056991.6675400746
796,1912122.286436368
798,1783069.2196949078
800,1663500.214270693
802,1548744.6415391257
804,1440089.3704584274
806,1338355.7413583586
808,1246002.4351940232
810,1164641.9993123675
812,1094313.8934356393
814,1033315.1507154639
816,979276.3012057306
818,928884.3489745458
820,880151.1850921786
822,831067.2044299131
824,781134.7456778135
826,731197.4373941015
828,682133.9307999852
830,635157.065687494
832,590767.9318637582
834,549817.9262336656
836,511926.9827578021
838,476508.58827418834
840,442988.8091633684
842,410512.7161371145
844,378885.83903410326
846,347759.8550145639
848,317145.038704723
850,286997.5341464601
852,257814.11993689087
854,229635.74166079867
856,202883.51438950063
858,177548.2583061767
860,153963.78261275878
862,132580.8515415665
864,113288.53811543316
866,96239.40874515912
868,81413.00428997858
870,68826.20859127876
872,58133.754868965356
874,49160.33286656182
876,41666.7751322839
878,35497.06635140222
880,30295.018445045593
882,25695.68578759554
884,21591.37521759164
886,17852.922836174053
888,14389.809163301048
890,11160.697668091325
892,8122.388938503005
894,5540.658797514908
896,3560.8201047046186
898,2067.8082667675035
900,1036.1379326991748
902,389.7262820249188
904,91.05201843704549
906,33.85408597934234
908,10.175341117526877
910,0.4798427012002451
912,-3.482973111878331
914,2.393407046365594
916,-5.54246237681494
918,-0.29287613119402345
920,-2.3379566926154904
922,4.289920058427215
924,0.9442159283387628
926,-2.7336637591896857
928,1.0006701908683229
930,-1.3057717257606596
932,1.5404292547943992
934,4.001179039549514
936,-1.414773894536123
938,3.248233771030033
940,0.4896997775772239
942,3.269850699677664
944,0.8757233738836303
946,1.835094323646329
948,-1.5911823412967454
950,0.22756291881490442
952,1.4645588048001232
954,3.043621082643513
956,0.027056986644400358
958,-0.10659459427895207
960,-0.7023202398106899
962,-2.0064684457895754
964,-3.0020412361544704
966,-2.2327748367148637
968,-2.2451702637504916
970,3.087313082970052
972,-1.474238603491238
974,-1.3750943045639343
976,0.09099228775895851
978,-4.359327552662422
980,0.17173412192045567
982,0.5883557203648353
984,-0.6237451035931326
986,0.24693956783995888
988,-1.1733774690472267
990,1.089032408027303
992,0.5823660453244227
994,0.22070109661222787
996,-2.4283186811864717
998,-1.410528741235163
