wave,flux
336,4715.966855303256
338,5780.4567611648945
340,7230.1607114358385
342,9039.147465147309
344,11129.773098047497
346,13594.788969686653
348,16380.962991239136
350,19566.212136007056
352,23718.474262196985
354,30199.818601751165
356,41626.295139970374
358,61588.90237339803
360,92411.80910035325
362,132805.77117320246
364,179220.69582186668
366,228752.7726517787
368,279914.6225233272
370,331854.56109398295
372,383653.3742370322
374,433125.4033920999
376,476681.00544624653
378,510589.45821623626
380,534422.4771633897
382,551492.7288458579
384,567312.4672071096
386,586108.0300351724
388,612921.4245193802
390,658137.5463877653
392,738772.1276099237
394,856760.5086724458
396,998501.0398943532
398,1139347.6654641237
400,1271474.3100385854
402,1395263.1075547768
404,1513421.748489802
406,1622855.296882574
408,1722778.6805764276
410,1817383.7521502504
412,1911599.398248571
414,2005679.5956606255
416,2096333.1959144087
418,2183569.887740574
420,2278327.0378806037
422,2402631.952841229
424,2580540.2063001543
426,2822273.9554545423
428,3113208.473117586
430,3412833.190757626
432,3669815.3048963626
434,3847717.999366036
436,3943013.3825808507
438,3986057.063211142
440,4023151.6949064992
442,4098911.571489957
444,4237142.232237471
446,4439276.055763234
448,4690928.250441505
450,4970396.971815486
452,5250036.990273625
454,5502272.564595422
456,5711018.2604389675
458,5864222.0911384765
460,5959859.289931508
462,6011924.618587708
464,6034991.794578763
466,6041473.282592046
468,6040848.589866548
470,6041536.095603861
472,6041426.356391932
474,6041299.464009633
476,6041088.376066122
478,6041567.382312883
480,6041309.588757349
482,6041380.012540521
484,6041223.61276314
486,6041631.446362965
488,6041526.452451506
490,6040998.147449489
492,6041606.976047085
494,6041326.093722587
496,6041205.4249951225
498,6041626.580917055
500,6041693.106446487
502,6041692.955664068
504,6041112.97124749
506,6041930.901185901
508,6041324.083197481
510,6041376.90410534
512,6041867.828268712
514,6041375.205372559
516,6041565.080960529
518,6040940.297080575
520,6041285.653708826
522,6041620.446218927
524,6041448.608441875
526,6041782.959406171
528,6041486.763559551
530,6041148.662657218
532,6041327.831653238
534,6040929.7844781205
536,6041406.757145592
538,6040725.957815994
540,6041230.950472879
542,6041524.82566298
544,6041514.62069444
546,6041361.296022074
548,6041831.87501581
550,6041805.794226913
552,6041310.550088716
554,6041409.442518335
556,6041212.169680017
558,6041466.121260339
560,6041245.048779509
562,6041468.557129843
564,6041575.699491105
566,6041616.224698161
568,6041167.427875295
570,6041602.218777943
572,6041636.195284188
574,6041512.855355879
576,6041443.280945983
578,6041535.775061805
580,6041690.147406309
582,6041562.455786301
584,6041232.055174838
586,6041236.246374102
588,6041444.501064078
590,6041205.792695025
592,6040897.188835793
594,6040949.869524526
596,6041105.227902651
598,6041153.260990721
600,6041620.459582143
602,6041399.737694689
604,6041171.505133791
606,6041460.413295236
608,6041503.093367623
610,6041605.204926473
612,6041468.10364984
614,6041138.769839182
616,6041116.457794797
618,6041580.002968251
620,6042231.072853022
622,6041855.292125801
624,6040268.589043481
626,6040883.392522986
628,6041682.406859147
630,6040884.197538529
632,6040720.747589124
634,6041398.435648009
636,6042126.9974770555
638,6042103.858526027
640,6041492.357188193
642,6040894.327975956
644,6040982.3225066485
646,6041980.090155608
648,6042358.827738344
650,6040794.477219541
652,6040423.461925387
654,6041363.45510043
656,6041139.490008522
658,6041103.674280887
660,6041635.248207814
662,6041407.700172122
664,6041643.454425795
666,6041454.806091329
668,6041108.503332038
670,6041563.77387736
672,6041267.205916216
674,6041163.483770362
676,6041536.1289094165
678,6041346.243453038
680,6041150.289956264
682,6041410.314774394
684,6041560.064687422
686,6041447.9187860545
688,6040955.81893969
690,6041315.875338955
692,6041350.307975556
694,6041850.281893436
696,6041497.367671758
698,6041199.302168769
700,6041453.64627868
702,6041828.693192877
704,6040860.42770877
706,6041675.622792104
708,6041571.681644926
710,6041346.454989626
712,6041546.234560798
714,6041858.824615336
716,6041142.5820534965
718,6041286.403162461
720,6041703.1207177285
722,6041807.585318082
724,6041329.8607438
726,6041296.890614847
728,6041527.288726995
730,6041723.792105585
732,6041192.330811199
734,6041150.1016538385
736,6041704.398114255
738,6041255.137810724
740,6041344.973276121
742,6041402.044472554
744,6041509.896928869
746,6041611.23472158
748,6041281.529689905
750,6041392.455248062
752,6040981.1977447625
754,6041295.389267499
756,6041239.4416478425
758,6041271.659960353
760,6041533.037164191
762,6033170.558480699
764,5997309.196911797
766,5919816.184365741
768,5789128.623488824
770,5591227.92157777
772,5331562.926099856
774,5030824.995786329
776,4699258.250554136
778,4346757.545140255
780,3987299.429810042
782,3631624.3336451664
784,3286378.269654552
786,2964560.482130975
788,2677357.907088312
790,2431812.978824052
792,2227005.630354121
794,2056991.6675400746
796,1912122.286436368
798,1783069.2196949078
800,1663500.214270693
802,1548744.6415391257
804,1440089.3704584274
806,1338355.7413583586
808,1246002.4351940232
810,1164641.9993123675
812,1094313.8934356393
814,1033315.1507154639
816,979276.3012057306
818,928884.3489745458
820,880151.1850921786
822,831067.2044299131
824,781134.7456778135
826,731197.4373941015
828,682133.9307999852
830,635157.065687494
832,590767.9318637582
834,549817.9262336656
836,511926.9827578021
838,476508.58827418834
840,442988.8091633684
842,410512.7161371145
844,378885.83903410326
846,347759.8550145639
848,317145.038704723
850,286997.5341464601
852,257814.11993689087
854,229635.74166079867
856,202883.51438950063
858,177548.2583061767
860,153963.78261275878
862,132580.8515415665
864,113288.53811543316
866,96239.40874515912
868,81413.00428997858
870,68826.20859127876
872,58133.754868965356
874,49160.33286656182
876,41666.7751322839
878,35497.06635140222
880,30295.018445045593
882,25695.68578759554
884,21591.37521759164
886,17852.922836174053
888,14389.809163301048
890,11160.697668091325
892,8122.388938503005
894,5540.658797514908
896,3560.8201047046186
898,2067.8082667675035
900,1036.1379326991748
902,389.7262820249188
904,91.05201843704549
906,33.85408597934234
908,10.175341117526877
910,0.4798427012002451
912,-3.482973111878331
914,2.393407046365594
916,-5.54246237681494
918,-0.29287613119402345
920,-2.3379566926154904
922,4.289920058427215
924,0.9442159283387628
926,-2.7336637591896857
928,1.0006701908683229
930,-1.3057717257606596
932,1.5404292547943992
934,4.001179039549514
936,-1.414773894536123
938,3.248233771030033
940,0.4896997775772239
942,3.269850699677664
944,0.8757233738836303
946,1.835094323646329
948,-1.5911823412967454
950,0.22756291881490442
952,1.4645588048001232
954,3.043621082643513
956,0.027056986644400358
958,-0.10659459427895207
960,-0.7023202398106899
962,-2.0064684457895754
964,-3.0020412361544704
966,-2.2327748367148637
968,-2.2451702637504916
970,3.087313082970052
972,-1.474238603491238
974,-1.3750943045639343
976,0.09099228775895851
978,-4.359327552662422
980,0.17173412192045567
982,0.5883557203648353
984,-0.6237451035931326
986,0.24693956783995888
988,-1.1733774690472267
990,1.089032408027303
992,0.5823660453244227
994,0.22070109661222787
996,-2.4283186811864717
998,-1.410528741235163
