wave,flux
336,114.68797600928067
338,946.1765543999556
340,2880.8806682187437
342,5722.993186486247
344,9371.779754216685
346,13903.883784716088
348,19366.09686144047
350,25803.042768942112
352,33255.52595990653
354,41924.13247291218
356,52115.17498148277
358,64252.733921120845
360,78696.19492089663
362,95468.19475866514
364,114531.45191228842
366,136020.70552353517
368,159988.31934292265
370,186448.76947370294
372,215172.6256709554
374,246141.76731969713
376,280850.7420982736
378,321264.2082721729
380,369720.7996494862
382,432131.07696298085
384,524482.0918156193
386,676412.6933579696
388,924317.4718628027
390,1293348.479896492
392,1778695.6762808673
394,2341694.665104627
396,2931562.773168067
398,3510337.9559241426
400,4063191.5686938018
402,4593790.270481922
404,5090154.989707197
406,5510464.573422043
408,5809465.506786187
410,5969185.474386404
412,6030847.921194587
414,6041648.518062763
416,6041281.386741678
418,6041545.786308973
420,6041494.262121424
422,6041152.8840395035
424,6041681.487511025
426,6041296.985898703
428,6041614.4828981
430,6041301.009757619
432,6041324.625958868
434,6041226.9736599205
436,6041355.9199452605
438,6041720.866783592
440,6041241.374526257
442,6041588.803014373
444,6041300.669525081
446,6041654.756278923
448,6041329.2227938725
450,6041045.895475763
452,6041562.057258856
454,6041835.486135517
456,6041218.470474184
458,6041221.6229546545
460,6041253.870126073
462,6041519.252854597
464,6041710.207716908
466,6040836.976026785
468,6041585.444257604
470,6041289.304145772
472,6041335.682873802
474,6041334.029766862
476,6041660.734985591
478,6041351.697934299
480,6041769.329462737
482,6041419.828617216
484,6041212.202761651
486,6041682.131239998
488,6041535.501290772
490,6041251.706801545
492,6041373.096860339
494,6041406.290435241
496,6041438.649163205
498,6041521.551951555
500,6041418.620282711
502,6041537.402564473
504,6041729.664803
506,6041596.628326619
508,6042034.95470536
510,6041084.097422101
512,6041558.57223066
514,6041368.421145185
516,6041427.309720053
518,6041239.085907472
520,6041010.547796012
522,6041210.5633935565
524,6041419.258929371
526,6041538.83524785
528,6041282.17555008
530,6041524.720863357
532,6041291.661128394
534,6041674.416252761
536,6041034.996664183
538,6041886.049598283
540,6041443.130870175
542,6041136.276965281
544,6041358.1036093
546,6041348.061689203
548,6041358.45466255
550,6041447.084021042
552,6041182.709540029
554,6041544.533822869
556,6041112.180180628
558,6040991.009755293
560,6041351.352923308
562,6041013.171929948
564,6041213.396855652
566,6041606.703910125
568,6041431.768998774
570,6041551.812150339
572,6041435.9545019455
574,6041582.4342159135
576,6041817.249667481
578,6041515.013603137
580,6041383.583410218
582,6041569.41253027
584,6041471.124883755
586,6041404.18646971
588,6041509.610841465
590,6041686.656467543
592,6041532.987392745
594,6041433.965348803
596,6041616.495019949
598,6041551.487714424
600,6041186.660108528
602,6040792.995371331
604,6041014.5844876645
606,6041358.690348371
608,6040983.154684514
610,6041498.580199925
612,6041771.881070919
614,6041468.878322786
616,6041523.926418988
618,6041771.07970201
620,6041635.711586985
622,6041118.406163583
624,6040957.332606155
626,6041864.80590687
628,6042078.604646818
630,6040890.801404962
632,6040422.392311628
634,6041153.603119928
636,6041896.762652413
638,6041483.090276551
640,6042165.331871707
642,6043636.074091846
644,6043709.61437029
646,6042303.444567198
648,6040891.921078553
650,6040991.002340055
652,6041489.0329654375
654,6041616.53925856
656,6041386.29426487
658,6041518.824605456
660,6041551.474854497
662,6041377.482277771
664,6041484.486580059
666,6041443.750029586
668,6041107.991046003
670,6041563.760999594
672,6041267.20627645
674,6041163.483843256
676,6041536.128915831
678,6041346.24345349
680,6041150.289956291
682,6041410.314774397
684,6041560.064687422
686,6041447.9187860545
688,6040955.81893969
690,6041315.875338955
692,6041350.307975556
694,6041850.281893436
696,6041497.367671758
698,6041199.302168769
700,6041453.64627868
702,6041828.693192877
704,6040860.42770877
706,6041675.622792104
708,6041571.681644926
710,6041346.454989626
712,6041546.234560798
714,6041858.824615336
716,6041142.5820534965
718,6041286.403162461
720,6041703.1207177285
722,6041807.585318082
724,6041329.8607438
726,6041296.890614847
728,6041527.288726995
730,6041723.792105585
732,6041192.330811199
734,6041150.1016538385
736,6041704.398114255
738,6041255.137810724
740,6041344.973276121
742,6041402.044472554
744,6041509.896928869
746,6041611.23472158
748,6041281.529689905
750,6041392.455248062
752,6040981.1977447625
754,6041295.389267499
756,6041239.4416478425
758,6041271.659960353
760,6041533.037164191
762,6033170.558480699
764,5997309.196911797
766,5919816.184365741
768,5789128.623488824
770,5591227.92157777
772,5331562.926099856
774,5030824.995786329
776,4699258.250554136
778,4346757.545140255
780,3987299.429810042
782,3631624.3336451664
784,3286378.269654552
786,2964560.482130975
788,2677357.907088312
790,2431812.978824052
792,2227005.630354121
794,2056991.6675400746
796,1912122.286436368
798,1783069.2196949078
800,1663500.214270693
802,1548744.6415391257
804,1440089.3704584274
806,1338355.7413583586
808,1246002.4351940232
810,1164641.9993123675
812,1094313.8934356393
814,1033315.1507154639
816,979276.3012057306
818,928884.3489745458
820,880151.1850921786
822,831067.2044299131
824,781134.7456778135
826,731197.4373941015
828,682133.9307999852
830,635157.065687494
832,590767.9318637582
834,549817.9262336656
836,511926.9827578021
838,476508.58827418834
840,442988.8091633684
842,410512.7161371145
844,378885.83903410326
846,347759.8550145639
848,317145.038704723
850,286997.5341464601
852,257814.11993689087
854,229635.74166079867
856,202883.51438950063
858,177548.2583061767
860,153963.78261275878
862,132580.8515415665
864,113288.53811543316
866,96239.40874515912
868,81413.00428997858
870,68826.20859127876
872,58133.754868965356
874,49160.33286656182
876,41666.7751322839
878,35497.06635140222
880,30295.018445045593
882,25695.68578759554
884,21591.37521759164
886,17852.922836174053
888,14389.809163301048
890,11160.697668091325
892,8122.388938503005
894,5540.658797514908
896,3560.8201047046186
898,2067.8082667675035
900,1036.1379326991748
902,389.7262820249188
904,91.05201843704549
906,33.85408597934234
908,10.175341117526877
910,0.4798427012002451
912,-3.482973111878331
914,2.393407046365594
916,-5.54246237681494
918,-0.29287613119402345
920,-2.3379566926154904
922,4.289920058427215
924,0.9442159283387628
926,-2.7336637591896857
928,1.0006701908683229
930,-1.3057717257606596
932,1.5404292547943992
934,4.001179039549514
936,-1.414773894536123
938,3.248233771030033
940,0.4896997775772239
942,3.269850699677664
944,0.8757233738836303
946,1.835094323646329
948,-1.5911823412967454
950,0.22756291881490442
952,1.4645588048001232
954,3.043621082643513
956,0.027056986644400358
958,-0.10659459427895207
960,-0.7023202398106899
962,-2.0064684457895754
964,-3.0020412361544704
966,-2.2327748367148637
968,-2.2451702637504916
970,3.087313082970052
972,-1.474238603491238
974,-1.3750943045639343
976,0.09099228775895851
978,-4.359327552662422
980,0.17173412192045567
982,0.5883557203648353
984,-0.6237451035931326
986,0.24693956783995888
988,-1.1733774690472267
990,1.089032408027303
992,0.5823660453244227
994,0.22070109661222787
996,-2.4283186811864717
998,-1.410528741235163
