wave,flux
336,12.654718021318288
338,77.76185033685367
340,201.49253984181934
342,339.31068342275364
344,483.663908225913
346,735.4149634527869
348,1147.5172299411422
350,1627.9054487052451
352,2110.5030888312745
354,2640.1352311417595
356,3276.5392089259694
358,4133.529010190991
360,5409.845922280633
362,6910.589742336587
364,8219.549087637193
366,9385.243929339016
368,10642.579822227777
370,12031.76013567231
372,13538.205392057173
374,15248.64339096929
376,17312.277461624213
378,19762.348812621898
380,22760.393746829446
382,26787.179370416656
384,33409.644393734336
386,45303.40627056286
388,64643.08552268712
390,90935.91845480529
392,121591.36890487684
394,151850.9215209523
396,178545.06441749187
398,202129.25915705852
400,228341.57009770436
402,263765.0202988673
404,311661.0060579706
406,369652.37849015405
408,430960.06740002235
410,487964.95865565026
412,536023.9652455609
414,575238.7096266988
416,610287.7832384447
418,648701.1682528761
420,699001.7961429992
422,769825.938603444
424,865884.774876586
426,984006.5572111066
428,1109895.2845193641
430,1219983.3934713346
432,1291096.0336552262
434,1310044.9620603544
436,1280680.1953342336
438,1222188.1584409722
440,1158670.513968611
442,1109952.1182053385
444,1087676.3343377595
446,1094558.2326333127
448,1129397.1719372645
450,1190571.2698275195
452,1275794.63220683
454,1390536.5761490793
456,1542071.94318504
458,1726542.5361989383
460,1941421.947792862
462,2184480.5159401484
464,2436616.717349776
466,2696562.725918646
468,2977171.1626816164
470,3291452.2947871163
472,3650624.3840639056
474,4056131.1166043887
476,4485942.011517368
478,4907677.704734051
480,5286840.16088572
482,5590001.99589866
484,5801127.607599042
486,5934441.550840177
488,6006481.232581997
490,6036167.480110531
492,6041638.040881623
494,6041254.563593416
496,6041585.091576415
498,6038926.614360256
500,6023639.929321254
502,5986579.368954952
504,5924518.6974504655
506,5840545.92619332
508,5743211.958288705
510,5646602.715100847
512,5569308.8735680645
514,5527128.770399573
516,5528962.799115891
518,5574786.190045238
520,5653035.77217342
522,5745627.8793970095
524,5834134.092593637
526,5911894.250523561
528,5972933.405542154
530,6013965.862451277
532,6035150.138501653
534,6041054.42996766
536,6041373.272587631
538,6041482.378268769
540,6040959.280712255
542,6041673.841029454
544,6041243.727583144
546,6041196.204844577
548,6041469.63470382
550,6041554.487096854
552,6041924.860232216
554,6041944.429796574
556,6041440.725693584
558,6041120.590072415
560,6041431.729608781
562,6041447.493827944
564,6041302.1782095805
566,6041449.049248642
568,6041436.681349944
570,6041273.43966846
572,6041608.628024582
574,6041140.801143931
576,6041459.530644938
578,6041415.4037399525
580,6041320.098879746
582,6041460.907945287
584,6041166.313361078
586,6041265.245791239
588,6041597.547730784
590,6041324.971002188
592,6041335.43512809
594,6041415.03413993
596,6041145.487479128
598,6041208.7458507735
600,6041627.377015776
602,6041813.238453677
604,6041629.846540529
606,6041430.932659823
608,6041464.54976046
610,6041385.505233649
612,6041200.845112113
614,6041114.89619983
616,6041188.927210042
618,6041145.117795856
620,6040754.284396
622,6040890.110887019
624,6041956.538433495
626,6041327.553783454
628,6040948.781233624
630,6041940.715460038
632,6041665.905300109
634,6041385.462830522
636,6041223.723351546
638,6040370.001984969
640,6042053.347361273
642,6044154.682691653
644,6042451.549413671
646,6040539.279455007
648,6039982.210099281
650,6040089.7411717195
652,6041351.654503627
654,6042875.942182098
656,6042853.493035911
658,6041791.65823125
660,6040963.23960012
662,6041488.279845816
664,6042090.684511578
666,6041456.739447187
668,6040855.843047792
670,6041558.013398511
672,6041267.367056532
674,6041163.516377352
676,6041536.1317789275
678,6041346.243655254
680,6041150.289968956
682,6041410.314775132
684,6041560.064687462
686,6041447.918786056
688,6040955.818939688
690,6041315.875338955
692,6041350.307975556
694,6041850.281893436
696,6041497.367671758
698,6041199.302168769
700,6041453.64627868
702,6041828.693192877
704,6040860.42770877
706,6041675.622792104
708,6041571.681644926
710,6041346.454989626
712,6041546.234560798
714,6041858.824615336
716,6041142.5820534965
718,6041286.403162461
720,6041703.1207177285
722,6041807.585318082
724,6041329.8607438
726,6041296.890614847
728,6041527.288726995
730,6041723.792105585
732,6041192.330811199
734,6041150.1016538385
736,6041704.398114255
738,6041255.137810724
740,6041344.973276121
742,6041402.044472554
744,6041509.896928869
746,6041611.23472158
748,6041281.529689905
750,6041392.455248062
752,6040981.1977447625
754,6041295.389267499
756,6041239.4416478425
758,6041271.659960353
760,6041533.037164191
762,6033170.558480699
764,5997309.196911797
766,5919816.184365741
768,5789128.623488824
770,5591227.92157777
772,5331562.926099856
774,5030824.995786329
776,4699258.250554136
778,4346757.545140255
780,3987299.429810042
782,3631624.3336451664
784,3286378.269654552
786,2964560.482130975
788,2677357.907088312
790,2431812.978824052
792,2227005.630354121
794,2056991.6675400746
796,1912122.286436368
798,1783069.2196949078
800,1663500.214270693
802,1548744.6415391257
804,1440089.3704584274
806,1338355.7413583586
808,1246002.4351940232
810,1164641.9993123675
812,1094313.8934356393
814,1033315.1507154639
816,979276.3012057306
818,928884.3489745458
820,880151.1850921786
822,831067.2044299131
824,781134.7456778135
826,731197.4373941015
828,682133.9307999852
830,635157.065687494
832,590767.9318637582
834,549817.9262336656
836,511926.9827578021
838,476508.58827418834
840,442988.8091633684
842,410512.7161371145
844,378885.83903410326
846,347759.8550145639
848,317145.038704723
850,286997.5341464601
852,257814.11993689087
854,229635.74166079867
856,202883.51438950063
858,177548.2583061767
860,153963.78261275878
862,132580.8515415665
864,113288.53811543316
866,96239.40874515912
868,81413.00428997858
870,68826.20859127876
872,58133.754868965356
874,49160.33286656182
876,41666.7751322839
878,35497.06635140222
880,30295.018445045593
882,25695.68578759554
884,21591.37521759164
886,17852.922836174053
888,14389.809163301048
890,11160.697668091325
892,8122.388938503005
894,5540.658797514908
896,3560.8201047046186
898,2067.8082667675035
900,1036.1379326991748
902,389.7262820249188
904,91.05201843704549
906,33.85408597934234
908,10.175341117526877
910,0.4798427012002451
912,-3.482973111878331
914,2.393407046365594
916,-5.54246237681494
918,-0.29287613119402345
920,-2.3379566926154904
922,4.289920058427215
924,0.9442159283387628
926,-2.7336637591896857
928,1.0006701908683229
930,-1.3057717257606596
932,1.5404292547943992
934,4.001179039549514
936,-1.414773894536123
938,3.248233771030033
940,0.4896997775772239
942,3.269850699677664
944,0.8757233738836303
946,1.835094323646329
948,-1.5911823412967454
950,0.22756291881490442
952,1.4645588048001232
954,3.043621082643513
956,0.027056986644400358
958,-0.10659459427895207
960,-0.7023202398106899
962,-2.0064684457895754
964,-3.0020412361544704
966,-2.2327748367148637
968,-2.2451702637504916
970,3.087313082970052
972,-1.474238603491238
974,-1.3750943045639343
976,0.09099228775895851
978,-4.359327552662422
980,0.17173412192045567
982,0.5883557203648353
984,-0.6237451035931326
986,0.24693956783995888
988,-1.1733774690472267
990,1.089032408027303
992,0.5823660453244227
994,0.22070109661222787
996,-2.4283186811864717
998,-1.410528741235163
