wave,flux
336,1464.3904918827548
338,2406.3168576908665
340,3333.453351267403
342,4320.0964823654695
344,5595.530691121889
346,7164.497793621731
348,8874.534228394205
350,10731.674681304827
352,12889.155305908389
354,15602.048033701705
356,18869.09220709093
358,22538.60359744211
360,26491.410411588247
362,30518.91384213883
364,34398.23264461462
366,38407.70191746229
368,43269.43069825004
370,49993.766108135744
372,60226.37959411851
374,77477.94810121536
376,107119.99965853935
378,155391.69720954052
380,227347.50439202072
382,325095.88302437816
384,446150.70001260395
386,581074.6024371245
388,711856.8959468165
390,818551.0203852975
392,890861.0846547825
394,935432.487515664
396,972114.1823019339
398,1020554.7421574374
400,1088202.1150309772
402,1167510.8490786972
404,1244294.7807706678
406,1306807.1079258092
408,1352340.8724576398
410,1385158.2802848734
412,1413359.8038423015
414,1445871.5232540632
416,1490800.9101762543
418,1553458.5824665776
420,1636784.1640558662
422,1739070.9097386485
424,1855464.1964976261
426,1977022.411729212
428,2090036.0599037516
430,2178109.416565326
432,2228251.438185107
434,2237979.8096015523
436,2216320.5249355603
438,2184373.6813734286
440,2164871.7874249197
442,2174632.307809604
444,2220877.4419046594
446,2302721.287101636
448,2412102.1673787157
450,2541065.876668589
452,2681995.9340362973
454,2831517.7445916883
456,2989199.336779757
458,3152367.139417154
460,3321121.6523596724
462,3496863.062912698
464,3677994.2789409924
466,3868316.980997624
468,4077974.9208656093
470,4314991.012842763
472,4582669.732403239
474,4870463.177655179
476,5160878.755624266
478,5432193.5629614405
480,5661202.153753354
482,5829548.385478487
484,5939350.198955461
486,6003604.670484813
488,6032903.232176902
490,6041282.175460873
492,6041428.237520762
494,6041618.477042159
496,6041557.224519821
498,6041602.86724945
500,6041359.006022307
502,6041232.244868342
504,6041886.263425069
506,6041621.683343318
508,6041261.822667596
510,6041496.833612621
512,6041848.062832301
514,6041246.635264094
516,6041287.500504489
518,6041597.973801825
520,6041255.268311438
522,6041864.226431941
524,6041884.311180708
526,6041540.576589332
528,6041660.644794227
530,6041318.373613419
532,6041445.516640381
534,6041244.6510553565
536,6041505.953357997
538,6041124.698114966
540,6041134.363507405
542,6041310.388402372
544,6041594.494499381
546,6041523.463299494
548,6041531.12169149
550,6041190.825223346
552,6041400.507989239
554,6041519.416053339
556,6041532.26045308
558,6041265.796249705
560,6041460.396386876
562,6041380.545843242
564,6041391.174948009
566,6041482.114761593
568,6041351.067723623
570,6041163.035836811
572,6041767.049739971
574,6041555.649584142
576,6041372.098727843
578,6041350.051897115
580,6041305.506645965
582,6041381.31597142
584,6041620.59513735
586,6041752.14110501
588,6041382.986007944
590,6041465.261437049
592,6041239.332567885
594,6041318.7685741875
596,6041770.356723805
598,6041423.845068071
600,6041526.901883706
602,6041609.7790329
604,6041563.534976473
606,6041625.805432643
608,6041697.964965517
610,6041566.97618968
612,6041463.078512203
614,6041356.482882871
616,6041134.052350995
618,6041270.550859603
620,6042034.491098705
622,6042630.292052534
624,6041893.002450299
626,6040201.044157596
628,6039911.59296758
630,6041590.941585724
632,6042528.767995422
634,6042022.478804961
636,6041047.4325096775
638,6041080.433235116
640,6041996.077629861
642,6042860.234671068
644,6042530.80176721
646,6040547.223031251
648,6039698.042883259
650,6042609.250985414
652,6044161.589332075
654,6043183.4570805915
656,6042572.230542445
658,6041615.738302743
660,6040011.409493939
662,6039164.371894454
664,6039761.471212064
666,6041354.194415364
668,6041836.330239612
670,6040723.607064315
672,6039219.987444579
674,6038952.17985305
676,6040485.834755614
678,6041949.900666462
680,6042436.6098076925
682,6042197.179111219
684,6041208.620373076
686,6039835.917128737
688,6040165.853739871
690,6042300.682409948
692,6042600.152838151
694,6041826.781294765
696,6041482.5955201145
698,6041197.958364104
700,6041453.511125954
702,6041828.6792516075
704,6040860.426292463
706,6041675.622653135
708,6041571.681631905
710,6041346.454988473
712,6041546.234560704
714,6041858.824615329
716,6041142.582053496
718,6041286.403162461
720,6041703.1207177285
722,6041807.585318082
724,6041329.8607438
726,6041296.890614847
728,6041527.288726995
730,6041723.792105585
732,6041192.330811199
734,6041150.1016538385
736,6041704.398114255
738,6041255.137810724
740,6041344.973276121
742,6041402.044472554
744,6041509.896928869
746,6041611.23472158
748,6041281.529689905
750,6041392.455248062
752,6040981.1977447625
754,6041295.389267499
756,6041239.4416478425
758,6041271.659960353
760,6041533.037164191
762,6033170.558480699
764,5997309.196911797
766,5919816.184365741
768,5789128.623488824
770,5591227.92157777
772,5331562.926099856
774,5030824.995786329
776,4699258.250554136
778,4346757.545140255
780,3987299.429810042
782,3631624.3336451664
784,3286378.269654552
786,2964560.482130975
788,2677357.907088312
790,2431812.978824052
792,2227005.630354121
794,2056991.6675400746
796,1912122.286436368
798,1783069.2196949078
800,1663500.214270693
802,1548744.6415391257
804,1440089.3704584274
806,1338355.7413583586
808,1246002.4351940232
810,1164641.9993123675
812,1094313.8934356393
814,1033315.1507154639
816,979276.3012057306
818,928884.3489745458
820,880151.1850921786
822,831067.2044299131
824,781134.7456778135
826,731197.4373941015
828,682133.9307999852
830,635157.065687494
832,590767.9318637582
834,549817.9262336656
836,511926.9827578021
838,476508.58827418834
840,442988.8091633684
842,410512.7161371145
844,378885.83903410326
846,347759.8550145639
848,317145.038704723
850,286997.5341464601
852,257814.11993689087
854,229635.74166079867
856,202883.51438950063
858,177548.2583061767
860,153963.78261275878
862,132580.8515415665
864,113288.53811543316
866,96239.40874515912
868,81413.00428997858
870,68826.20859127876
872,58133.754868965356
874,49160.33286656182
876,41666.7751322839
878,35497.06635140222
880,30295.018445045593
882,25695.68578759554
884,21591.37521759164
886,17852.922836174053
888,14389.809163301048
890,11160.697668091325
892,8122.388938503005
894,5540.658797514908
896,3560.8201047046186
898,2067.8082667675035
900,1036.1379326991748
902,389.7262820249188
904,91.05201843704549
906,33.85408597934234
908,10.175341117526877
910,0.4798427012002451
912,-3.482973111878331
914,2.393407046365594
916,-5.54246237681494
918,-0.29287613119402345
920,-2.3379566926154904
922,4.289920058427215
924,0.9442159283387628
926,-2.7336637591896857
928,1.0006701908683229
930,-1.3057717257606596
932,1.5404292547943992
934,4.001179039549514
936,-1.414773894536123
938,3.248233771030033
940,0.4896997775772239
942,3.269850699677664
944,0.8757233738836303
946,1.835094323646329
948,-1.5911823412967454
950,0.22756291881490442
952,1.4645588048001232
954,3.043621082643513
956,0.027056986644400358
958,-0.10659459427895207
960,-0.7023202398106899
962,-2.0064684457895754
964,-3.0020412361544704
966,-2.2327748367148637
968,-2.2451702637504916
970,3.087313082970052
972,-1.474238603491238
974,-1.3750943045639343
976,0.09099228775895851
978,-4.359327552662422
980,0.17173412192045567
982,0.5883557203648353
984,-0.6237451035931326
986,0.24693956783995888
988,-1.1733774690472267
990,1.089032408027303
992,0.5823660453244227
994,0.22070109661222787
996,-2.4283186811864717
998,-1.410528741235163
