wave,flux
336,1.7322234616161303
338,9.765146401875494
340,18.04481958925916
342,37.481841024409
344,80.79118861031218
346,133.35177148678875
348,212.0947546468362
350,300.43633930984674
352,404.97945178209613
354,536.3587090858772
356,706.3964569403502
358,874.4796378569698
360,1044.7079627513594
362,1255.229723672277
364,1549.3084564342478
366,1931.2172218928863
368,2396.9684592614803
370,2942.061783156276
372,3601.398143418953
374,4403.9912664769
376,5311.8396265154715
378,6344.702619310012
380,7524.324321995165
382,8869.791982901384
384,10594.462007319284
386,12978.574326359718
388,16286.00097792774
390,21231.705627839325
392,29712.849973285254
394,42299.54826305167
396,58132.92091341284
398,74066.00766238134
400,89334.99755485804
402,103792.65773006891
404,118697.86326071025
406,134579.00249417956
408,151950.30880160432
410,170787.9025020193
412,190777.8208440546
414,211864.35125023226
416,234235.2783930321
418,258297.6664667862
420,283494.6518588409
422,308477.3389716402
424,332606.73063226615
426,357088.9109309136
428,385392.6251840841
430,421066.56761215336
432,465622.930334861
434,518288.23534657067
436,577276.8565593079
438,641316.0139614029
440,710360.9164040709
442,785304.1325326042
444,867323.1097089817
446,957394.5800422807
448,1056482.146518916
450,1165178.1722586716
452,1283398.2590075368
454,1414158.6709404655
456,1560806.0157295626
458,1721071.5391102147
460,1891595.4419450099
462,2067431.6191466732
464,2235381.508628873
466,2389781.986955775
468,2535676.6876809406
470,2681129.699514796
472,2842246.8597114994
474,3043293.698864434
476,3310285.7100797226
478,3652083.2978494638
480,4051261.6681465856
482,4483446.215641543
484,4915081.760144137
486,5303508.645042962
488,5603137.529766519
490,5812975.4817341855
492,5945705.637130357
494,6015042.399883486
496,6039703.353854954
498,6041649.003391296
500,6041426.176223185
502,6041548.3571478035
504,6041411.191289006
506,6041292.671691177
508,6041334.336543956
510,6041655.802858283
512,6041361.888587423
514,6041513.393533862
516,6041435.812583633
518,6041665.95505179
520,6041304.763378419
522,6041043.82724742
524,6041252.476286614
526,6041203.134994935
528,6041307.326940903
530,6041791.92928064
532,6040941.135367727
534,6041310.924730127
536,6041389.313569799
538,6041482.667901071
540,6041101.878704261
542,6041341.4960825415
544,6041613.312962574
546,6041228.801275314
548,6041527.213152542
550,6041316.9493675865
552,6041375.82794389
554,6041226.087383149
556,6041135.619222641
558,6041302.843676618
560,6041830.316308481
562,6041727.3896878
564,6041498.299485112
566,6041456.224008147
568,6041202.603359658
570,6041504.335205416
572,6041492.426221719
574,6041238.714159434
576,6041162.650400933
578,6040985.054785077
580,6041506.273614964
582,6042151.84069946
584,6041692.686584672
586,6041217.58733232
588,6041417.044996777
590,6041325.156021274
592,6041646.55679502
594,6041553.581289197
596,6041050.901158972
598,6041499.343779567
600,6041288.7874201005
602,6041448.91111915
604,6041557.418338793
606,6041219.035695947
608,6041216.588501524
610,6041223.034542172
612,6041221.694021543
614,6041371.355364802
616,6041463.673305551
618,6040949.953567484
620,6041287.215523608
622,6041773.676014877
624,6040725.499049588
626,6040327.417300339
628,6040162.811387112
630,6039961.308970335
632,6041054.662413923
634,6041180.767595731
636,6040597.409006698
638,6041510.421681176
640,6041285.926072478
642,6039654.776856836
644,6039000.6691523455
646,6041321.342768215
648,6043477.14296017
650,6041402.417730793
652,6040021.206799666
654,6040849.134217886
656,6041399.941038248
658,6041988.253442483
660,6042463.299193169
662,6041546.179332187
664,6041365.19163567
666,6043066.909248216
668,6042348.771707355
670,6040135.174012948
672,6041099.629597595
674,6042044.611957985
676,6040464.299562389
678,6040808.898433303
680,6043610.527751425
682,6045025.449042466
684,6042237.953916904
686,6041528.480765022
688,6041076.734736845
690,6041322.024628768
692,6041350.635802729
694,6041850.301936765
696,6041497.369181975
698,6041199.30230615
700,6041453.646292497
702,6041828.693194302
704,6040860.4277089145
706,6041675.622792118
708,6041571.681644927
710,6041346.454989626
712,6041546.234560798
714,6041858.824615336
716,6041142.5820534965
718,6041286.403162461
720,6041703.1207177285
722,6041807.585318082
724,6041329.8607438
726,6041296.890614847
728,6041527.288726995
730,6041723.792105585
732,6041192.330811199
734,6041150.1016538385
736,6041704.398114255
738,6041255.137810724
740,6041344.973276121
742,6041402.044472554
744,6041509.896928869
746,6041611.23472158
748,6041281.529689905
750,6041392.455248062
752,6040981.1977447625
754,6041295.389267499
756,6041239.4416478425
758,6041271.659960353
760,6041533.037164191
762,6033170.558480699
764,5997309.196911797
766,5919816.184365741
768,5789128.623488824
770,5591227.92157777
772,5331562.926099856
774,5030824.995786329
776,4699258.250554136
778,4346757.545140255
780,3987299.429810042
782,3631624.3336451664
784,3286378.269654552
786,2964560.482130975
788,2677357.907088312
790,2431812.978824052
792,2227005.630354121
794,2056991.6675400746
796,1912122.286436368
798,1783069.2196949078
800,1663500.214270693
802,1548744.6415391257
804,1440089.3704584274
806,1338355.7413583586
808,1246002.4351940232
810,1164641.9993123675
812,1094313.8934356393
814,1033315.1507154639
816,979276.3012057306
818,928884.3489745458
820,880151.1850921786
822,831067.2044299131
824,781134.7456778135
826,731197.4373941015
828,682133.9307999852
830,635157.065687494
832,590767.9318637582
834,549817.9262336656
836,511926.9827578021
838,476508.58827418834
840,442988.8091633684
842,410512.7161371145
844,378885.83903410326
846,347759.8550145639
848,317145.038704723
850,286997.5341464601
852,257814.11993689087
854,229635.74166079867
856,202883.51438950063
858,177548.2583061767
860,153963.78261275878
862,132580.8515415665
864,113288.53811543316
866,96239.40874515912
868,81413.00428997858
870,68826.20859127876
872,58133.754868965356
874,49160.33286656182
876,41666.7751322839
878,35497.06635140222
880,30295.018445045593
882,25695.68578759554
884,21591.37521759164
886,17852.922836174053
888,14389.809163301048
890,11160.697668091325
892,8122.388938503005
894,5540.658797514908
896,3560.8201047046186
898,2067.8082667675035
900,1036.1379326991748
902,389.7262820249188
904,91.05201843704549
906,33.85408597934234
908,10.175341117526877
910,0.4798427012002451
912,-3.482973111878331
914,2.393407046365594
916,-5.54246237681494
918,-0.29287613119402345
920,-2.3379566926154904
922,4.289920058427215
924,0.9442159283387628
926,-2.7336637591896857
928,1.0006701908683229
930,-1.3057717257606596
932,1.5404292547943992
934,4.001179039549514
936,-1.414773894536123
938,3.248233771030033
940,0.4896997775772239
942,3.269850699677664
944,0.8757233738836303
946,1.835094323646329
948,-1.5911823412967454
950,0.22756291881490442
952,1.4645588048001232
954,3.043621082643513
956,0.027056986644400358
958,-0.10659459427895207
960,-0.7023202398106899
962,-2.0064684457895754
964,-3.0020412361544704
966,-2.2327748367148637
968,-2.2451702637504916
970,3.087313082970052
972,-1.474238603491238
974,-1.3750943045639343
976,0.09099228775895851
978,-4.359327552662422
980,0.17173412192045567
982,0.5883557203648353
984,-0.6237451035931326
986,0.24693956783995888
988,-1.1733774690472267
990,1.089032408027303
992,0.5823660453244227
994,0.22070109661222787
996,-2.4283186811864717
998,-1.410528741235163
