wave,flux
336,1258.9226576047986
338,1928.0779220864447
340,2532.142728821588
342,3205.0753540607975
344,4034.768775079301
346,5092.2178664441
348,6420.034067543856
350,8161.783081808914
352,10330.930942203093
354,12722.078404764621
356,15243.423210949413
358,17882.91338098709
360,20807.808307046787
362,24022.99333721886
364,27339.05018659938
366,30887.27766071863
368,35202.52999219252
370,41290.75387725907
372,50672.65762356355
374,66137.48746491321
376,92042.14123289462
378,133732.76248940645
380,195207.73703642754
382,277324.4716040695
384,375136.7655982192
386,476079.92193470313
388,562035.7297018085
390,619343.262253462
392,650531.3625540282
394,669368.5955899189
396,692032.5452417615
398,725927.3920685595
400,775651.1086530063
402,843366.8683527396
404,932325.5410599597
406,1044174.9455039819
408,1176720.9411828462
410,1319239.3163833257
412,1450474.1323804394
414,1546529.1349823156
416,1592797.2286326205
418,1593588.198838544
420,1572027.047219491
422,1559294.8395664054
424,1583186.37562562
426,1656155.749182606
428,1774855.566073306
430,1919185.5657668773
432,2061849.2025912858
434,2178846.7535948176
436,2258420.5553641235
438,2304307.8166830232
440,2331630.703950475
442,2359947.823800156
444,2403757.8735699477
446,2471815.4094558028
448,2565685.453160471
450,2681558.818098243
452,2813907.624248986
454,2965506.114376088
456,3133361.4995362535
458,3313271.294509482
460,3498795.510164656
462,3682973.6160615585
464,3844187.6045875447
466,3982685.3990631057
468,4109772.287249796
470,4244512.457131932
472,4413526.997969961
474,4630486.364920021
476,4886393.971846666
478,5166442.394665182
480,5440874.009221985
482,5671034.621623215
484,5838793.776853813
486,5950384.438262689
488,6012203.7556095105
490,6037799.100646569
492,6041702.8251184365
494,6041468.815131341
496,6041600.406974612
498,6041645.353540019
500,6041533.782046743
502,6041629.3597618835
504,6041395.753434312
506,6041448.017673762
508,6041581.05673818
510,6041311.68907207
512,6041447.698730782
514,6041261.075096205
516,6041242.161456144
518,6041473.45124476
520,6041558.708010657
522,6041276.582993075
524,6041755.743421544
526,6041650.553301288
528,6041488.465196299
530,6041160.300340346
532,6041438.516604928
534,6041158.23998802
536,6041323.63738282
538,6041465.801951368
540,6041427.870050981
542,6041083.630802612
544,6041365.040776727
546,6041100.060569531
548,6041376.643668195
550,6041626.033034035
552,6041377.550557448
554,6041087.795568645
556,6041207.5979054095
558,6041338.954526582
560,6041247.694280102
562,6041560.039430628
564,6041651.687263385
566,6041459.2265778305
568,6041480.307301069
570,6041620.58967999
572,6041416.618208285
574,6041539.341922971
576,6041543.479939348
578,6041405.367332644
580,6041590.784022052
582,6041734.960805714
584,6041471.559556317
586,6041435.487722283
588,6041682.564541228
590,6041508.400738496
592,6041431.846008356
594,6041618.23728814
596,6041655.7194166705
598,6041517.20456746
600,6041614.747259998
602,6041528.734777595
604,6041464.171314934
606,6041501.189401372
608,6041282.510624355
610,6041197.812176274
612,6041402.253238088
614,6041764.856868463
616,6041856.420393251
618,6041226.599524023
620,6041139.951049623
622,6041413.270446194
624,6041212.332088324
626,6042299.755388515
628,6042344.412269335
630,6040748.076326055
632,6041185.1216848325
634,6041682.881596769
636,6041647.26867094
638,6042362.9974007495
640,6041587.699389351
642,6040019.737741488
644,6039945.577303834
646,6039963.374879088
648,6039982.231936531
650,6040888.891364151
652,6041884.189506893
654,6042568.307766024
656,6042686.560078644
658,6039980.201291033
660,6038696.730101978
662,6041323.593119128
664,6040973.876424932
666,6041408.23758129
668,6041106.345565744
670,6041563.719635772
672,6041267.207433538
674,6041163.484077395
676,6041536.128936436
678,6041346.243454942
680,6041150.2899563825
682,6041410.3147744015
684,6041560.064687423
686,6041447.9187860545
688,6040955.81893969
690,6041315.875338955
692,6041350.307975556
694,6041850.281893436
696,6041497.367671758
698,6041199.302168769
700,6041453.64627868
702,6041828.693192877
704,6040860.42770877
706,6041675.622792104
708,6041571.681644926
710,6041346.454989626
712,6041546.234560798
714,6041858.824615336
716,6041142.5820534965
718,6041286.403162461
720,6041703.1207177285
722,6041807.585318082
724,6041329.8607438
726,6041296.890614847
728,6041527.288726995
730,6041723.792105585
732,6041192.330811199
734,6041150.1016538385
736,6041704.398114255
738,6041255.137810724
740,6041344.973276121
742,6041402.044472554
744,6041509.896928869
746,6041611.23472158
748,6041281.529689905
750,6041392.455248062
752,6040981.1977447625
754,6041295.389267499
756,6041239.4416478425
758,6041271.659960353
760,6041533.037164191
762,6033170.558480699
764,5997309.196911797
766,5919816.184365741
768,5789128.623488824
770,5591227.92157777
772,5331562.926099856
774,5030824.995786329
776,4699258.250554136
778,4346757.545140255
780,3987299.429810042
782,3631624.3336451664
784,3286378.269654552
786,2964560.482130975
788,2677357.907088312
790,2431812.978824052
792,2227005.630354121
794,2056991.6675400746
796,1912122.286436368
798,1783069.2196949078
800,1663500.214270693
802,1548744.6415391257
804,1440089.3704584274
806,1338355.7413583586
808,1246002.4351940232
810,1164641.9993123675
812,1094313.8934356393
814,1033315.1507154639
816,979276.3012057306
818,928884.3489745458
820,880151.1850921786
822,831067.2044299131
824,781134.7456778135
826,731197.4373941015
828,682133.9307999852
830,635157.065687494
832,590767.9318637582
834,549817.9262336656
836,511926.9827578021
838,476508.58827418834
840,442988.8091633684
842,410512.7161371145
844,378885.83903410326
846,347759.8550145639
848,317145.038704723
850,286997.5341464601
852,257814.11993689087
854,229635.74166079867
856,202883.51438950063
858,177548.2583061767
860,153963.78261275878
862,132580.8515415665
864,113288.53811543316
866,96239.40874515912
868,81413.00428997858
870,68826.20859127876
872,58133.754868965356
874,49160.33286656182
876,41666.7751322839
878,35497.06635140222
880,30295.018445045593
882,25695.68578759554
884,21591.37521759164
886,17852.922836174053
888,14389.809163301048
890,11160.697668091325
892,8122.388938503005
894,5540.658797514908
896,3560.8201047046186
898,2067.8082667675035
900,1036.1379326991748
902,389.7262820249188
904,91.05201843704549
906,33.85408597934234
908,10.175341117526877
910,0.4798427012002451
912,-3.482973111878331
914,2.393407046365594
916,-5.54246237681494
918,-0.29287613119402345
920,-2.3379566926154904
922,4.289920058427215
924,0.9442159283387628
926,-2.7336637591896857
928,1.0006701908683229
930,-1.3057717257606596
932,1.5404292547943992
934,4.001179039549514
936,-1.414773894536123
938,3.248233771030033
940,0.4896997775772239
942,3.269850699677664
944,0.8757233738836303
946,1.835094323646329
948,-1.5911823412967454
950,0.22756291881490442
952,1.4645588048001232
954,3.043621082643513
956,0.027056986644400358
958,-0.10659459427895207
960,-0.7023202398106899
962,-2.0064684457895754
964,-3.0020412361544704
966,-2.2327748367148637
968,-2.2451702637504916
970,3.087313082970052
972,-1.474238603491238
974,-1.3750943045639343
976,0.09099228775895851
978,-4.359327552662422
980,0.17173412192045567
982,0.5883557203648353
984,-0.6237451035931326
986,0.24693956783995888
988,-1.1733774690472267
990,1.089032408027303
992,0.5823660453244227
994,0.22070109661222787
996,-2.4283186811864717
998,-1.410528741235163
