wave,flux
336,73.70956583405967
338,471.2115694048672
340,1288.5778970462193
342,2408.6148819259347
344,3841.443959544853
346,5665.228396117216
348,7913.043081647928
350,10438.857923556321
352,13208.624045893277
354,16400.451737230298
356,20189.726040535283
358,24762.51141656146
360,30429.665796836856
362,37142.07076015468
364,44534.552907456025
366,52566.80997469319
368,61482.86007206302
370,71261.26725495972
372,81744.3551037994
374,92948.36100580207
376,105696.79343461689
378,121009.9492352342
380,140245.82909486312
382,166198.56780524834
384,206696.6245178249
386,274756.05871996196
388,384570.4836690765
390,543791.4137975923
392,749952.8400613995
394,984603.6595727894
396,1225399.6881736047
398,1454707.490703985
400,1672267.861631
402,1884398.2396670913
404,2096624.3640060863
406,2308363.9207420656
408,2516074.048934158
410,2716416.9603279997
412,2906639.070287539
414,3087050.176696212
416,3263008.4831364797
418,3443344.187500354
420,3639952.3708654065
422,3861729.685147755
424,4115478.855623377
426,4400087.417534753
428,4705792.3724708455
430,5011012.142899398
432,5290013.729207852
434,5522757.551306498
436,5703301.114325562
438,5832837.261616582
440,5923385.809514164
442,5982777.053980346
444,6016505.523880562
446,6034027.256959034
448,6041104.991863533
450,6041150.4734480465
452,6041196.404597073
454,6041254.390788773
456,6041498.472108567
458,6041647.537631015
460,6041036.051700026
462,6041501.378149229
464,6041225.214051197
466,6041623.445586311
468,6041205.216637375
470,6041299.231896156
472,6041162.948215527
474,6041493.357698012
476,6041143.807826404
478,6041598.933112259
480,6041475.334936484
482,6041406.6860475205
484,6041578.7016932815
486,6041409.022755295
488,6041500.645711779
490,6041810.353292589
492,6041149.005166596
494,6041017.206414917
496,6041863.47647709
498,6041738.664372113
500,6041480.487899757
502,6041451.44270011
504,6040923.963843928
506,6041570.858881243
508,6041263.604834843
510,6041340.570605202
512,6041342.369616318
514,6041756.451175898
516,6041636.750088105
518,6041105.017271561
520,6041152.29399616
522,6041550.621640853
524,6041265.147943811
526,6041547.028389325
528,6041666.77195591
530,6041367.129267061
532,6041349.985141784
534,6041802.4136031065
536,6041829.693354026
538,6041632.239858298
540,6041672.696814569
542,6041034.36121759
544,6041276.641597346
546,6041432.283229149
548,6041746.882088448
550,6041691.521191857
552,6041204.845960921
554,6041445.510220025
556,6041444.731644869
558,6040984.242983665
560,6040975.28137281
562,6041492.90509841
564,6041697.753339174
566,6041787.089893373
568,6041530.830666904
570,6041824.51703196
572,6041677.940288507
574,6041214.701071176
576,6041013.732402464
578,6041170.58442556
580,6041400.723632958
582,6041334.600228276
584,6041080.393640036
586,6041221.883787423
588,6041583.04543324
590,6041099.036134741
592,6041089.890459543
594,6041464.738021973
596,6041506.149250555
598,6041546.632956027
600,6041403.713273312
602,6041381.092715967
604,6041535.279009828
606,6041610.247665069
608,6041457.66241622
610,6041351.453354113
612,6041315.708423613
614,6041319.504951922
616,6041385.254479161
618,6041406.653141952
620,6040724.35150629
622,6040671.445235539
624,6042436.142052555
626,6042409.565380415
628,6041434.850021699
630,6041258.147090068
632,6041360.62495733
634,6041450.270498987
636,6041360.591032973
638,6040994.296647221
640,6040457.092698529
642,6039896.581001168
644,6039460.363369399
646,6039296.041617491
648,6039551.217559709
650,6040373.4930103235
652,6041772.953954956
654,6041397.717380758
656,6041151.071926112
658,6041511.421882658
660,6041551.262020106
662,6041377.486714809
664,6041484.487440463
666,6041443.750089426
668,6041107.991048776
670,6041563.760999665
672,6041267.2062764475
674,6041163.483843256
676,6041536.128915831
678,6041346.24345349
680,6041150.289956291
682,6041410.314774397
684,6041560.064687422
686,6041447.9187860545
688,6040955.81893969
690,6041315.875338955
692,6041350.307975556
694,6041850.281893436
696,6041497.367671758
698,6041199.302168769
700,6041453.64627868
702,6041828.693192877
704,6040860.42770877
706,6041675.622792104
708,6041571.681644926
710,6041346.454989626
712,6041546.234560798
714,6041858.824615336
716,6041142.5820534965
718,6041286.403162461
720,6041703.1207177285
722,6041807.585318082
724,6041329.8607438
726,6041296.890614847
728,6041527.288726995
730,6041723.792105585
732,6041192.330811199
734,6041150.1016538385
736,6041704.398114255
738,6041255.137810724
740,6041344.973276121
742,6041402.044472554
744,6041509.896928869
746,6041611.23472158
748,6041281.529689905
750,6041392.455248062
752,6040981.1977447625
754,6041295.389267499
756,6041239.4416478425
758,6041271.659960353
760,6041533.037164191
762,6033170.558480699
764,5997309.196911797
766,5919816.184365741
768,5789128.623488824
770,5591227.92157777
772,5331562.926099856
774,5030824.995786329
776,4699258.250554136
778,4346757.545140255
780,3987299.429810042
782,3631624.3336451664
784,3286378.269654552
786,2964560.482130975
788,2677357.907088312
790,2431812.978824052
792,2227005.630354121
794,2056991.6675400746
796,1912122.286436368
798,1783069.2196949078
800,1663500.214270693
802,1548744.6415391257
804,1440089.3704584274
806,1338355.7413583586
808,1246002.4351940232
810,1164641.9993123675
812,1094313.8934356393
814,1033315.1507154639
816,979276.3012057306
818,928884.3489745458
820,880151.1850921786
822,831067.2044299131
824,781134.7456778135
826,731197.4373941015
828,682133.9307999852
830,635157.065687494
832,590767.9318637582
834,549817.9262336656
836,511926.9827578021
838,476508.58827418834
840,442988.8091633684
842,410512.7161371145
844,378885.83903410326
846,347759.8550145639
848,317145.038704723
850,286997.5341464601
852,257814.11993689087
854,229635.74166079867
856,202883.51438950063
858,177548.2583061767
860,153963.78261275878
862,132580.8515415665
864,113288.53811543316
866,96239.40874515912
868,81413.00428997858
870,68826.20859127876
872,58133.754868965356
874,49160.33286656182
876,41666.7751322839
878,35497.06635140222
880,30295.018445045593
882,25695.68578759554
884,21591.37521759164
886,17852.922836174053
888,14389.809163301048
890,11160.697668091325
892,8122.388938503005
894,5540.658797514908
896,3560.8201047046186
898,2067.8082667675035
900,1036.1379326991748
902,389.7262820249188
904,91.05201843704549
906,33.85408597934234
908,10.175341117526877
910,0.4798427012002451
912,-3.482973111878331
914,2.393407046365594
916,-5.54246237681494
918,-0.29287613119402345
920,-2.3379566926154904
922,4.289920058427215
924,0.9442159283387628
926,-2.7336637591896857
928,1.0006701908683229
930,-1.3057717257606596
932,1.5404292547943992
934,4.001179039549514
936,-1.414773894536123
938,3.248233771030033
940,0.4896997775772239
942,3.269850699677664
944,0.8757233738836303
946,1.835094323646329
948,-1.5911823412967454
950,0.22756291881490442
952,1.4645588048001232
954,3.043621082643513
956,0.027056986644400358
958,-0.10659459427895207
960,-0.7023202398106899
962,-2.0064684457895754
964,-3.0020412361544704
966,-2.2327748367148637
968,-2.2451702637504916
970,3.087313082970052
972,-1.474238603491238
974,-1.3750943045639343
976,0.09099228775895851
978,-4.359327552662422
980,0.17173412192045567
982,0.5883557203648353
984,-0.6237451035931326
986,0.24693956783995888
988,-1.1733774690472267
990,1.089032408027303
992,0.5823660453244227
994,0.22070109661222787
996,-2.4283186811864717
998,-1.410528741235163
