wave,flux
336,4322.334109206089
338,5913.052914372717
340,8269.358901299967
342,11740.548150798213
344,16216.948861521958
346,21553.813331286576
348,27765.812792701785
350,34967.55152973661
352,43252.73600275126
354,52930.76948463016
356,64350.83663125275
358,78699.16897485289
360,99745.25191910232
362,134612.1229071061
364,187821.57248272107
366,254229.82757275357
368,321493.897718022
370,383326.937629765
372,445574.0727893027
374,516758.89011516277
376,597231.5296881569
378,682042.7782169344
380,770004.5740060218
382,869735.0431496636
384,994030.651155023
386,1154083.5186464181
388,1355599.184663209
390,1605459.1229101159
392,1914439.8594354182
394,2291311.5303560225
396,2730526.760097402
398,3210173.640808393
400,3697187.6327445377
402,4166346.9672925062
404,4612008.67599416
406,5038209.108220023
408,5422272.743193341
410,5729633.782139366
412,5921824.596946628
414,6013293.112418042
416,6039749.057570197
418,6041392.955503333
420,6041678.607567356
422,6041626.7460695645
424,6041591.429685062
426,6041806.055434913
428,6042002.811819232
430,6041505.057120902
432,6041447.3346454585
434,6041330.735104086
436,6041093.971361349
438,6041076.156690427
440,6041652.992678684
442,6041279.5655592475
444,6041484.436510978
446,6041713.680102741
448,6041137.343165818
450,6041430.761722062
452,6040782.832811665
454,6041286.737842031
456,6041564.211642958
458,6041234.263233215
460,6041341.371868808
462,6041383.77256777
464,6041456.015382726
466,6041145.882911429
468,6041478.520675115
470,6041732.865639997
472,6041307.577921847
474,6041849.530667972
476,6041670.980303073
478,6041381.196182369
480,6041499.019019389
482,6041144.190796047
484,6041517.498616206
486,6041338.416851711
488,6041479.491192574
490,6041552.625317593
492,6041223.428507707
494,6041530.101648073
496,6041362.459330346
498,6041406.599421952
500,6041281.0026334515
502,6041234.35303955
504,6041270.095136259
506,6041912.945733819
508,6041337.523366785
510,6041346.569051088
512,6041475.956140625
514,6041454.197316995
516,6041330.990662398
518,6041327.56345572
520,6041266.847853868
522,6041213.325442952
524,6041470.188316808
526,6041791.288094263
528,6041452.601946885
530,6041577.362216949
532,6041250.713925971
534,6041621.076828777
536,6041408.612917422
538,6041719.5538953105
540,6041467.746572396
542,6040978.6789022675
544,6041599.333206843
546,6041407.249568637
548,6041500.827359088
550,6041552.50077257
552,6041339.337909176
554,6041761.095854122
556,6041700.745696804
558,6041478.690530113
560,6041660.801995449
562,6041187.925129346
564,6041320.181583455
566,6041557.491251595
568,6041502.210080457
570,6041416.4830008
572,6041591.398714538
574,6041656.137783337
576,6041544.097834146
578,6041221.769274644
580,6041082.710187619
582,6041240.306513784
584,6041369.492187747
586,6041471.500186453
588,6041616.188799791
590,6041481.54503905
592,6041755.484873284
594,6041810.876022567
596,6041465.966980926
598,6041583.333494879
600,6041262.1832481595
602,6041245.263600645
604,6041504.1304435795
606,6041523.44409319
608,6041364.621973624
610,6041468.009843269
612,6041181.466792431
614,6040877.961888136
616,6041339.390906842
618,6041628.636934567
620,6041331.656194602
622,6041012.982513525
624,6041142.614244445
626,6040623.961041752
628,6040692.758300064
630,6041737.9282875545
632,6041784.756853507
634,6041562.10882351
636,6041616.831353098
638,6041604.732354111
640,6041523.872316112
642,6041592.238624202
644,6041888.725286339
646,6041874.836358108
648,6042490.860027338
650,6043778.73630083
652,6040312.588672008
654,6041418.4016199615
656,6041027.364484504
658,6041503.453040119
660,6041551.032909307
662,6041377.491491165
664,6041484.488366665
666,6041443.750153842
668,6041107.9910517605
670,6041563.760999739
672,6041267.206276446
674,6041163.483843256
676,6041536.128915831
678,6041346.24345349
680,6041150.289956291
682,6041410.314774397
684,6041560.064687422
686,6041447.9187860545
688,6040955.81893969
690,6041315.875338955
692,6041350.307975556
694,6041850.281893436
696,6041497.367671758
698,6041199.302168769
700,6041453.64627868
702,6041828.693192877
704,6040860.42770877
706,6041675.622792104
708,6041571.681644926
710,6041346.454989626
712,6041546.234560798
714,6041858.824615336
716,6041142.5820534965
718,6041286.403162461
720,6041703.1207177285
722,6041807.585318082
724,6041329.8607438
726,6041296.890614847
728,6041527.288726995
730,6041723.792105585
732,6041192.330811199
734,6041150.1016538385
736,6041704.398114255
738,6041255.137810724
740,6041344.973276121
742,6041402.044472554
744,6041509.896928869
746,6041611.23472158
748,6041281.529689905
750,6041392.455248062
752,6040981.1977447625
754,6041295.389267499
756,6041239.4416478425
758,6041271.659960353
760,6041533.037164191
762,6033170.558480699
764,5997309.196911797
766,5919816.184365741
768,5789128.623488824
770,5591227.92157777
772,5331562.926099856
774,5030824.995786329
776,4699258.250554136
778,4346757.545140255
780,3987299.429810042
782,3631624.3336451664
784,3286378.269654552
786,2964560.482130975
788,2677357.907088312
790,2431812.978824052
792,2227005.630354121
794,2056991.6675400746
796,1912122.286436368
798,1783069.2196949078
800,1663500.214270693
802,1548744.6415391257
804,1440089.3704584274
806,1338355.7413583586
808,1246002.4351940232
810,1164641.9993123675
812,1094313.8934356393
814,1033315.1507154639
816,979276.3012057306
818,928884.3489745458
820,880151.1850921786
822,831067.2044299131
824,781134.7456778135
826,731197.4373941015
828,682133.9307999852
830,635157.065687494
832,590767.9318637582
834,549817.9262336656
836,511926.9827578021
838,476508.58827418834
840,442988.8091633684
842,410512.7161371145
844,378885.83903410326
846,347759.8550145639
848,317145.038704723
850,286997.5341464601
852,257814.11993689087
854,229635.74166079867
856,202883.51438950063
858,177548.2583061767
860,153963.78261275878
862,132580.8515415665
864,113288.53811543316
866,96239.40874515912
868,81413.00428997858
870,68826.20859127876
872,58133.754868965356
874,49160.33286656182
876,41666.7751322839
878,35497.06635140222
880,30295.018445045593
882,25695.68578759554
884,21591.37521759164
886,17852.922836174053
888,14389.809163301048
890,11160.697668091325
892,8122.388938503005
894,5540.658797514908
896,3560.8201047046186
898,2067.8082667675035
900,1036.1379326991748
902,389.7262820249188
904,91.05201843704549
906,33.85408597934234
908,10.175341117526877
910,0.4798427012002451
912,-3.482973111878331
914,2.393407046365594
916,-5.54246237681494
918,-0.29287613119402345
920,-2.3379566926154904
922,4.289920058427215
924,0.9442159283387628
926,-2.7336637591896857
928,1.0006701908683229
930,-1.3057717257606596
932,1.5404292547943992
934,4.001179039549514
936,-1.414773894536123
938,3.248233771030033
940,0.4896997775772239
942,3.269850699677664
944,0.8757233738836303
946,1.835094323646329
948,-1.5911823412967454
950,0.22756291881490442
952,1.4645588048001232
954,3.043621082643513
956,0.027056986644400358
958,-0.10659459427895207
960,-0.7023202398106899
962,-2.0064684457895754
964,-3.0020412361544704
966,-2.2327748367148637
968,-2.2451702637504916
970,3.087313082970052
972,-1.474238603491238
974,-1.3750943045639343
976,0.09099228775895851
978,-4.359327552662422
980,0.17173412192045567
982,0.5883557203648353
984,-0.6237451035931326
986,0.24693956783995888
988,-1.1733774690472267
990,1.089032408027303
992,0.5823660453244227
994,0.22070109661222787
996,-2.4283186811864717
998,-1.410528741235163
