wave,flux
336,1944.1722031093223
338,2885.4329079338813
340,3531.9841189577596
342,4009.2672535363154
344,4594.2461980550515
346,5501.507908368895
348,6449.959173788021
350,7356.197931187361
352,8519.422371203771
354,10134.59980777975
356,12197.06433713258
358,14568.973303282388
360,16768.820154566383
362,18299.365100936742
364,19476.640078523884
366,21315.46353067071
368,24485.310478053398
370,29395.626494305117
372,38340.629064540895
374,56326.55408068713
376,90456.63435934755
378,148639.40131471283
380,237007.03707992015
382,355629.37141034956
384,494562.37806810514
386,629973.9815363261
388,727547.8106149428
390,757327.2577472843
392,712511.6344533984
394,616147.5435934567
396,508325.28142668505
398,425651.8464858268
400,385458.2175190246
402,382609.4402971661
404,394427.5436824913
406,394868.61297517
408,367835.43750800303
410,316021.3007829601
412,255523.84812659607
414,206479.3936422086
416,184679.2339089775
418,201155.98872550734
420,259795.04946321086
422,356331.4060148452
424,472689.65676467447
426,581440.5504941355
428,657840.7382536519
430,693098.3210966066
432,702132.9069147413
434,716049.6457387096
436,761726.210871023
438,846612.5669248373
440,952129.2113519004
442,1042760.8207498235
444,1084390.6415761777
446,1060709.9924726754
448,980424.7617225593
450,871121.792646427
452,768210.5126468003
454,785903.5326863155
456,1004698.8659722616
458,1421885.7660356706
460,2024092.167442277
462,2769638.456473536
464,3442412.1425331836
466,3985938.4433506415
468,4400503.839121503
470,4689754.320815396
472,4872611.152712988
474,5044700.453609682
476,5224205.476300943
478,5402722.811194257
480,5571303.31926633
482,5720415.9953075005
484,5842021.456827628
486,5929414.5984347705
488,5986916.011233033
490,6019657.584616131
492,6035871.199364873
494,6041352.418374547
496,6040894.6856365325
498,6041520.832614275
500,6041478.0238899635
502,6041760.337214564
504,6041467.223237574
506,6041155.316843712
508,6041404.646420107
510,6041392.15919385
512,6041701.798526787
514,6041448.844301991
516,6041846.89946148
518,6041313.256299134
520,6041420.898608228
522,6041256.48588188
524,6041518.179398161
526,6041672.79899104
528,6041363.844894283
530,6041800.207613321
532,6041414.766559346
534,6041575.920957281
536,6041376.943288761
538,6041440.821971192
540,6041372.14227199
542,6041652.604542598
544,6041492.007335799
546,6041368.298869795
548,6041422.373048993
550,6041705.023741485
552,6041361.408521708
554,6041382.438063474
556,6041254.196674523
558,6041256.827738504
560,6041253.746057994
562,6041426.698117086
564,6041426.63234924
566,6041563.766223809
568,6041398.294262631
570,6041274.86623119
572,6041177.282424186
574,6041493.036767698
576,6041094.866631923
578,6041351.544793612
580,6041546.092384439
582,6041421.474335613
584,6041643.210256883
586,6041249.287242153
588,6041133.13146875
590,6041078.698613149
592,6041227.357969526
594,6041272.377645547
596,6041423.489257752
598,6042082.810081691
600,6041885.985385682
602,6041649.66100018
604,6041436.966113674
606,6041208.623760689
608,6041394.557419636
610,6041476.084227566
612,6041435.526694261
614,6041387.002908916
616,6041350.24685593
618,6041330.232226439
620,6041150.626970072
622,6041473.607274789
624,6042606.407547944
626,6042336.773893694
628,6041804.876546682
630,6042098.817405854
632,6041951.277991093
634,6041465.174589354
636,6041473.58857675
638,6042237.165072295
640,6041510.6042617755
642,6040522.211142318
644,6041594.89080392
646,6041451.030659795
648,6040780.853197793
650,6042016.680754378
652,6041329.53726835
654,6039236.157919348
656,6039909.951413342
658,6041629.661490338
660,6041601.367817182
662,6041373.919436284
664,6041483.795694506
666,6041443.701979156
668,6041107.988819572
670,6041563.760943627
672,6041267.206278018
674,6041163.483843574
676,6041536.128915859
678,6041346.2434534915
680,6041150.289956291
682,6041410.314774397
684,6041560.064687422
686,6041447.9187860545
688,6040955.81893969
690,6041315.875338955
692,6041350.307975556
694,6041850.281893436
696,6041497.367671758
698,6041199.302168769
700,6041453.64627868
702,6041828.693192877
704,6040860.42770877
706,6041675.622792104
708,6041571.681644926
710,6041346.454989626
712,6041546.234560798
714,6041858.824615336
716,6041142.5820534965
718,6041286.403162461
720,6041703.1207177285
722,6041807.585318082
724,6041329.8607438
726,6041296.890614847
728,6041527.288726995
730,6041723.792105585
732,6041192.330811199
734,6041150.1016538385
736,6041704.398114255
738,6041255.137810724
740,6041344.973276121
742,6041402.044472554
744,6041509.896928869
746,6041611.23472158
748,6041281.529689905
750,6041392.455248062
752,6040981.1977447625
754,6041295.389267499
756,6041239.4416478425
758,6041271.659960353
760,6041533.037164191
762,6033170.558480699
764,5997309.196911797
766,5919816.184365741
768,5789128.623488824
770,5591227.92157777
772,5331562.926099856
774,5030824.995786329
776,4699258.250554136
778,4346757.545140255
780,3987299.429810042
782,3631624.3336451664
784,3286378.269654552
786,2964560.482130975
788,2677357.907088312
790,2431812.978824052
792,2227005.630354121
794,2056991.6675400746
796,1912122.286436368
798,1783069.2196949078
800,1663500.214270693
802,1548744.6415391257
804,1440089.3704584274
806,1338355.7413583586
808,1246002.4351940232
810,1164641.9993123675
812,1094313.8934356393
814,1033315.1507154639
816,979276.3012057306
818,928884.3489745458
820,880151.1850921786
822,831067.2044299131
824,781134.7456778135
826,731197.4373941015
828,682133.9307999852
830,635157.065687494
832,590767.9318637582
834,549817.9262336656
836,511926.9827578021
838,476508.58827418834
840,442988.8091633684
842,410512.7161371145
844,378885.83903410326
846,347759.8550145639
848,317145.038704723
850,286997.5341464601
852,257814.11993689087
854,229635.74166079867
856,202883.51438950063
858,177548.2583061767
860,153963.78261275878
862,132580.8515415665
864,113288.53811543316
866,96239.40874515912
868,81413.00428997858
870,68826.20859127876
872,58133.754868965356
874,49160.33286656182
876,41666.7751322839
878,35497.06635140222
880,30295.018445045593
882,25695.68578759554
884,21591.37521759164
886,17852.922836174053
888,14389.809163301048
890,11160.697668091325
892,8122.388938503005
894,5540.658797514908
896,3560.8201047046186
898,2067.8082667675035
900,1036.1379326991748
902,389.7262820249188
904,91.05201843704549
906,33.85408597934234
908,10.175341117526877
910,0.4798427012002451
912,-3.482973111878331
914,2.393407046365594
916,-5.54246237681494
918,-0.29287613119402345
920,-2.3379566926154904
922,4.289920058427215
924,0.9442159283387628
926,-2.7336637591896857
928,1.0006701908683229
930,-1.3057717257606596
932,1.5404292547943992
934,4.001179039549514
936,-1.414773894536123
938,3.248233771030033
940,0.4896997775772239
942,3.269850699677664
944,0.8757233738836303
946,1.835094323646329
948,-1.5911823412967454
950,0.22756291881490442
952,1.4645588048001232
954,3.043621082643513
956,0.027056986644400358
958,-0.10659459427895207
960,-0.7023202398106899
962,-2.0064684457895754
964,-3.0020412361544704
966,-2.2327748367148637
968,-2.2451702637504916
970,3.087313082970052
972,-1.474238603491238
974,-1.3750943045639343
976,0.09099228775895851
978,-4.359327552662422
980,0.17173412192045567
982,0.5883557203648353
984,-0.6237451035931326
986,0.24693956783995888
988,-1.1733774690472267
990,1.089032408027303
992,0.5823660453244227
994,0.22070109661222787
996,-2.4283186811864717
998,-1.410528741235163
