wave,flux
336,29.296985906541064
338,238.12278034099143
340,755.0618234656312
342,1603.442400021045
344,2744.9061344542565
346,4223.245080003353
348,6062.389335090417
350,8181.098785050527
352,10596.817609399284
354,13382.303451187881
356,16519.867685308232
358,20181.86036614619
360,24724.418784943617
362,30204.243020004567
364,36380.76446591358
366,43282.59662827196
368,51198.861195602505
370,60192.6807222591
372,70031.23292527
374,80632.9731380358
376,92594.37114257267
378,106691.89891133322
380,123557.82088387344
382,144312.85716211525
384,173463.293853673
386,219245.30671914044
388,292332.4177018199
390,401620.2905040432
392,551765.2082779502
394,736701.7158796992
396,942644.6893503576
398,1153312.9055678379
400,1361082.637743077
402,1564922.6737776974
404,1767136.1238653641
406,1969579.7697715145
408,2173312.4057017723
410,2377321.3203680725
412,2577547.0318997926
414,2768580.76516901
416,2945451.11280887
418,3108585.8770743166
420,3265658.285229208
422,3430980.5609608623
424,3618277.203967341
426,3838268.6104429327
428,4089315.994653571
430,4357506.691047593
432,4623264.818047284
434,4871204.931990164
436,5100191.50174688
438,5316488.510266246
440,5519023.176123664
442,5703075.992070554
444,5852960.847022621
446,5953735.202335852
448,6011379.038370411
450,6035991.989586813
452,6041280.629277471
454,6041346.776429429
456,6041293.017010035
458,6041912.903618756
460,6041430.442824546
462,6041112.147117925
464,6041595.315950891
466,6041280.797297069
468,6041224.801687884
470,6041414.3788991645
472,6041332.749267875
474,6041894.851276589
476,6041534.235354239
478,6041398.778462106
480,6040997.85633848
482,6041398.755292876
484,6041578.726612782
486,6041225.865442843
488,6041289.9833850125
490,6041275.520466215
492,6041683.679279262
494,6041392.488376891
496,6041119.48914148
498,6041528.003830506
500,6041599.1195623875
502,6041320.897558866
504,6041125.454265305
506,6041005.902685491
508,6040903.978604664
510,6041371.231958673
512,6041754.480282126
514,6041234.7538715135
516,6041285.96628419
518,6041313.916764725
520,6041170.509884737
522,6041365.184132165
524,6041556.987672031
526,6041627.409014704
528,6041410.697511644
530,6041724.493806914
532,6041206.390752626
534,6041747.055629289
536,6041242.3405004
538,6041507.0534039885
540,6041185.20399051
542,6041500.874897025
544,6041744.570142634
546,6041147.392219863
548,6040989.900958156
550,6041397.234012472
552,6041486.04627884
554,6041198.99549099
556,6041158.557787492
558,6041106.604045689
560,6041523.062085356
562,6040995.878749058
564,6041193.42405955
566,6041549.635104957
568,6040989.917198653
570,6041284.852944712
572,6041070.886844718
574,6041644.00822054
576,6041591.869232319
578,6041414.911205447
580,6041344.637608068
582,6041176.055134959
584,6041149.742077964
586,6041233.658337606
588,6041536.872743721
590,6041301.697720307
592,6041343.806327846
594,6041508.975012549
596,6041366.648979128
598,6041342.926300762
600,6041384.670919713
602,6041688.43288389
604,6041500.598226389
606,6040979.690539286
608,6041232.934458591
610,6041410.052556428
612,6041326.1641109735
614,6041441.473424479
616,6041764.772290129
618,6041392.883836452
620,6041989.708811425
622,6042413.056141494
624,6040750.23939988
626,6041090.147031564
628,6041812.708299856
630,6041072.128051311
632,6040856.343459678
634,6041195.106723793
636,6041781.485146673
638,6042449.382942938
640,6042484.956017069
642,6041394.275516599
644,6039748.248123133
646,6040187.901249967
648,6041923.583027778
650,6042348.407656227
652,6042168.899648344
654,6040159.6924704425
656,6036405.954326856
658,6042071.149017891
660,6041928.378931762
662,6041369.245387374
664,6041867.347883782
666,6041470.377667355
668,6041109.224845824
670,6041563.79201466
672,6041267.205408853
674,6041163.483667697
676,6041536.128900383
678,6041346.243452402
680,6041150.289956223
682,6041410.314774392
684,6041560.064687422
686,6041447.9187860545
688,6040955.81893969
690,6041315.875338955
692,6041350.307975556
694,6041850.281893436
696,6041497.367671758
698,6041199.302168769
700,6041453.64627868
702,6041828.693192877
704,6040860.42770877
706,6041675.622792104
708,6041571.681644926
710,6041346.454989626
712,6041546.234560798
714,6041858.824615336
716,6041142.5820534965
718,6041286.403162461
720,6041703.1207177285
722,6041807.585318082
724,6041329.8607438
726,6041296.890614847
728,6041527.288726995
730,6041723.792105585
732,6041192.330811199
734,6041150.1016538385
736,6041704.398114255
738,6041255.137810724
740,6041344.973276121
742,6041402.044472554
744,6041509.896928869
746,6041611.23472158
748,6041281.529689905
750,6041392.455248062
752,6040981.1977447625
754,6041295.389267499
756,6041239.4416478425
758,6041271.659960353
760,6041533.037164191
762,6033170.558480699
764,5997309.196911797
766,5919816.184365741
768,5789128.623488824
770,5591227.92157777
772,5331562.926099856
774,5030824.995786329
776,4699258.250554136
778,4346757.545140255
780,3987299.429810042
782,3631624.3336451664
784,3286378.269654552
786,2964560.482130975
788,2677357.907088312
790,2431812.978824052
792,2227005.630354121
794,2056991.6675400746
796,1912122.286436368
798,1783069.2196949078
800,1663500.214270693
802,1548744.6415391257
804,1440089.3704584274
806,1338355.7413583586
808,1246002.4351940232
810,1164641.9993123675
812,1094313.8934356393
814,1033315.1507154639
816,979276.3012057306
818,928884.3489745458
820,880151.1850921786
822,831067.2044299131
824,781134.7456778135
826,731197.4373941015
828,682133.9307999852
830,635157.065687494
832,590767.9318637582
834,549817.9262336656
836,511926.9827578021
838,476508.58827418834
840,442988.8091633684
842,410512.7161371145
844,378885.83903410326
846,347759.8550145639
848,317145.038704723
850,286997.5341464601
852,257814.11993689087
854,229635.74166079867
856,202883.51438950063
858,177548.2583061767
860,153963.78261275878
862,132580.8515415665
864,113288.53811543316
866,96239.40874515912
868,81413.00428997858
870,68826.20859127876
872,58133.754868965356
874,49160.33286656182
876,41666.7751322839
878,35497.06635140222
880,30295.018445045593
882,25695.68578759554
884,21591.37521759164
886,17852.922836174053
888,14389.809163301048
890,11160.697668091325
892,8122.388938503005
894,5540.658797514908
896,3560.8201047046186
898,2067.8082667675035
900,1036.1379326991748
902,389.7262820249188
904,91.05201843704549
906,33.85408597934234
908,10.175341117526877
910,0.4798427012002451
912,-3.482973111878331
914,2.393407046365594
916,-5.54246237681494
918,-0.29287613119402345
920,-2.3379566926154904
922,4.289920058427215
924,0.9442159283387628
926,-2.7336637591896857
928,1.0006701908683229
930,-1.3057717257606596
932,1.5404292547943992
934,4.001179039549514
936,-1.414773894536123
938,3.248233771030033
940,0.4896997775772239
942,3.269850699677664
944,0.8757233738836303
946,1.835094323646329
948,-1.5911823412967454
950,0.22756291881490442
952,1.4645588048001232
954,3.043621082643513
956,0.027056986644400358
958,-0.10659459427895207
960,-0.7023202398106899
962,-2.0064684457895754
964,-3.0020412361544704
966,-2.2327748367148637
968,-2.2451702637504916
970,3.087313082970052
972,-1.474238603491238
974,-1.3750943045639343
976,0.09099228775895851
978,-4.359327552662422
980,0.17173412192045567
982,0.5883557203648353
984,-0.6237451035931326
986,0.24693956783995888
988,-1.1733774690472267
990,1.089032408027303
992,0.5823660453244227
994,0.22070109661222787
996,-2.4283186811864717
998,-1.410528741235163
