wave,flux
336,490.6424927508904
338,865.9485636739694
340,1373.452974145324
342,2078.9500154692173
344,3045.2732917497137
346,4274.747987320249
348,5774.447005534495
350,7659.716883323133
352,10042.736388710859
354,12976.277162264665
356,16498.48984486838
358,20618.282743735752
360,25330.603727800433
362,30739.453813956698
364,37028.70914377888
366,44376.327077451904
368,53078.8597411505
370,63542.44011970677
372,76330.09770026484
374,92465.30694593488
376,113920.28266955823
378,143038.67090553054
380,181961.83472487988
382,231932.1955969196
384,293643.778550342
386,366859.7523954802
388,449721.83538231894
390,540642.2672272845
392,640141.8572424643
394,750647.75771546
396,875392.0623876721
398,1015089.8210794888
400,1167515.2476009505
402,1328389.1667328367
404,1496833.00285961
406,1677204.9327780276
408,1876739.6760763754
410,2101351.8685407015
412,2348176.5831621164
414,2609467.3506874396
416,2876036.7566808984
418,3143497.3230271805
420,3412222.011994906
422,3685057.370584172
424,3965566.225759665
426,4255065.914730448
428,4554174.071659362
430,4863669.269911046
432,5173479.249572807
434,5461355.038916001
436,5703838.836442398
438,5877526.9079097
440,5978351.114999655
442,6026740.533643438
444,6040561.148581545
446,6041212.575884075
448,6041344.680452818
450,6041083.74250607
452,6041614.291279672
454,6041581.997534776
456,6041113.831477758
458,6041647.315768214
460,6041131.952489276
462,6041399.507764249
464,6041622.7575905435
466,6041629.514208385
468,6041879.9297590945
470,6041081.685368458
472,6041471.551236425
474,6041300.515168116
476,6041744.9733328195
478,6041310.134612489
480,6041155.848651836
482,6041293.879844728
484,6041082.46878053
486,6041421.99778457
488,6041502.501861209
490,6041207.739313078
492,6041186.467871907
494,6041115.92799108
496,6041384.179369619
498,6041033.486395881
500,6041139.088173977
502,6041233.049197
504,6041855.278673448
506,6041309.485913286
508,6041701.325176781
510,6041179.020488565
512,6041506.012160606
514,6041462.916243889
516,6041388.294105442
518,6041877.843247121
520,6041398.6444464745
522,6041424.959947785
524,6041201.355014968
526,6041323.369322851
528,6041383.437635861
530,6041531.21974263
532,6041486.1113759745
534,6041333.419024259
536,6041143.205252188
538,6041611.071740147
540,6041219.85645642
542,6041161.936815226
544,6041483.1245531915
546,6041816.258206127
548,6041276.099594694
550,6041473.16282505
552,6041428.321335979
554,6041501.257636442
556,6041151.124046954
558,6041027.701456684
560,6041196.370783699
562,6041161.745323349
564,6041474.778624342
566,6041411.126500458
568,6041501.894970217
570,6041398.481383106
572,6041556.174476409
574,6041291.985816798
576,6040947.7494288245
578,6041447.9595139325
580,6041569.4295191895
582,6040945.435943786
584,6040975.577286354
586,6041571.39018965
588,6041450.780074824
590,6041111.161446411
592,6041085.121387222
594,6041253.297626969
596,6041328.166100858
598,6041335.371440777
600,6041496.225525324
602,6041795.353278953
604,6041992.434651388
606,6041736.165238211
608,6041089.632048276
610,6041019.974056107
612,6041381.745824659
614,6041535.7459483985
616,6041332.818523325
618,6041446.229971062
620,6041457.957092229
622,6041084.82810638
624,6040764.087619201
626,6041138.944928607
628,6040637.183127429
630,6039542.063046162
632,6040949.535713889
634,6041964.857437398
636,6041269.746437366
638,6040463.385051894
640,6039964.026244131
642,6039918.116172835
644,6040472.100996776
646,6041692.320618711
648,6041643.749248559
650,6041401.221476491
652,6041705.777194742
654,6041397.689689066
656,6041151.21679098
658,6041511.431214396
660,6041551.262288403
662,6041377.486709215
664,6041484.487439378
666,6041443.750089349
668,6041107.991048771
670,6041563.760999665
672,6041267.2062764475
674,6041163.483843256
676,6041536.128915831
678,6041346.24345349
680,6041150.289956291
682,6041410.314774397
684,6041560.064687422
686,6041447.9187860545
688,6040955.81893969
690,6041315.875338955
692,6041350.307975556
694,6041850.281893436
696,6041497.367671758
698,6041199.302168769
700,6041453.64627868
702,6041828.693192877
704,6040860.42770877
706,6041675.622792104
708,6041571.681644926
710,6041346.454989626
712,6041546.234560798
714,6041858.824615336
716,6041142.5820534965
718,6041286.403162461
720,6041703.1207177285
722,6041807.585318082
724,6041329.8607438
726,6041296.890614847
728,6041527.288726995
730,6041723.792105585
732,6041192.330811199
734,6041150.1016538385
736,6041704.398114255
738,6041255.137810724
740,6041344.973276121
742,6041402.044472554
744,6041509.896928869
746,6041611.23472158
748,6041281.529689905
750,6041392.455248062
752,6040981.1977447625
754,6041295.389267499
756,6041239.4416478425
758,6041271.659960353
760,6041533.037164191
762,6033170.558480699
764,5997309.196911797
766,5919816.184365741
768,5789128.623488824
770,5591227.92157777
772,5331562.926099856
774,5030824.995786329
776,4699258.250554136
778,4346757.545140255
780,3987299.429810042
782,3631624.3336451664
784,3286378.269654552
786,2964560.482130975
788,2677357.907088312
790,2431812.978824052
792,2227005.630354121
794,2056991.6675400746
796,1912122.286436368
798,1783069.2196949078
800,1663500.214270693
802,1548744.6415391257
804,1440089.3704584274
806,1338355.7413583586
808,1246002.4351940232
810,1164641.9993123675
812,1094313.8934356393
814,1033315.1507154639
816,979276.3012057306
818,928884.3489745458
820,880151.1850921786
822,831067.2044299131
824,781134.7456778135
826,731197.4373941015
828,682133.9307999852
830,635157.065687494
832,590767.9318637582
834,549817.9262336656
836,511926.9827578021
838,476508.58827418834
840,442988.8091633684
842,410512.7161371145
844,378885.83903410326
846,347759.8550145639
848,317145.038704723
850,286997.5341464601
852,257814.11993689087
854,229635.74166079867
856,202883.51438950063
858,177548.2583061767
860,153963.78261275878
862,132580.8515415665
864,113288.53811543316
866,96239.40874515912
868,81413.00428997858
870,68826.20859127876
872,58133.754868965356
874,49160.33286656182
876,41666.7751322839
878,35497.06635140222
880,30295.018445045593
882,25695.68578759554
884,21591.37521759164
886,17852.922836174053
888,14389.809163301048
890,11160.697668091325
892,8122.388938503005
894,5540.658797514908
896,3560.8201047046186
898,2067.8082667675035
900,1036.1379326991748
902,389.7262820249188
904,91.05201843704549
906,33.85408597934234
908,10.175341117526877
910,0.4798427012002451
912,-3.482973111878331
914,2.393407046365594
916,-5.54246237681494
918,-0.29287613119402345
920,-2.3379566926154904
922,4.289920058427215
924,0.9442159283387628
926,-2.7336637591896857
928,1.0006701908683229
930,-1.3057717257606596
932,1.5404292547943992
934,4.001179039549514
936,-1.414773894536123
938,3.248233771030033
940,0.4896997775772239
942,3.269850699677664
944,0.8757233738836303
946,1.835094323646329
948,-1.5911823412967454
950,0.22756291881490442
952,1.4645588048001232
954,3.043621082643513
956,0.027056986644400358
958,-0.10659459427895207
960,-0.7023202398106899
962,-2.0064684457895754
964,-3.0020412361544704
966,-2.2327748367148637
968,-2.2451702637504916
970,3.087313082970052
972,-1.474238603491238
974,-1.3750943045639343
976,0.09099228775895851
978,-4.359327552662422
980,0.17173412192045567
982,0.5883557203648353
984,-0.6237451035931326
986,0.24693956783995888
988,-1.1733774690472267
990,1.089032408027303
992,0.5823660453244227
994,0.22070109661222787
996,-2.4283186811864717
998,-1.410528741235163
