wave,flux
336,53.46604210666065
338,433.8955375620496
340,1305.752100466768
342,2563.5708459961597
344,4165.204099014677
346,6085.897691037089
348,8378.892948930805
350,11100.06483742224
352,14305.697016532164
354,18063.512168016943
356,22501.150890793087
358,27800.97865400181
360,34095.72362771185
362,41441.49668858485
364,49787.710904913765
366,59160.04785371845
368,69595.90230328093
370,81099.13680854662
372,93624.96209751033
374,107189.13893867694
376,122347.31941678915
378,140005.66449626812
380,161307.9991869736
382,189139.65495873938
384,230806.7571137862
386,299599.053044268
388,411696.2408016817
390,578550.8400940832
392,797939.0699331628
394,1051627.8576356764
396,1314443.5672425728
398,1566225.618182175
400,1800119.4848894083
402,2018597.9876848087
404,2228574.886874925
406,2440621.7565780254
408,2666912.370473395
410,2913732.802119219
412,3178079.8910812796
414,3450608.488516135
416,3721434.945220677
418,3986873.2063214295
420,4249871.133886802
422,4515114.654984725
424,4787207.060420677
426,5066400.110367909
428,5341127.097898566
430,5589565.198029901
432,5791670.177866256
434,5927239.999445715
436,6001996.015392163
438,6034048.585093748
440,6041360.375241889
442,6041719.90414521
444,6040883.913593747
446,6041117.931555459
448,6041603.360814741
450,6041615.956311425
452,6041291.441203417
454,6041332.287186515
456,6041427.617939006
458,6041662.7260860875
460,6041291.687814215
462,6041043.85715871
464,6041162.538916381
466,6041276.995577123
468,6041252.348099062
470,6041411.706602283
472,6041434.399789615
474,6041445.489092052
476,6041747.152223395
478,6041352.279903233
480,6041183.036780682
482,6041505.8897516485
484,6041615.446351709
486,6041543.101633653
488,6041489.017260025
490,6041489.672987544
492,6041036.238210996
494,6040905.761050883
496,6041231.598051635
498,6041446.087675419
500,6041372.469049847
502,6042060.497422019
504,6041312.9640386235
506,6041635.069152219
508,6041354.7849368835
510,6041313.900218659
512,6041735.541359559
514,6041779.268481846
516,6041614.593510838
518,6040987.611690547
520,6041508.118853693
522,6041537.402327342
524,6041418.192824466
526,6041282.618736354
528,6041599.37065073
530,6041456.187851099
532,6041090.302110946
534,6041458.2642474845
536,6041871.77608379
538,6041467.888671404
540,6041294.4465236645
542,6041296.129110118
544,6041034.645709074
546,6041464.710894873
548,6041564.387462895
550,6041371.779747711
552,6041614.5608705925
554,6041349.363794758
556,6041309.709801236
558,6041222.61358083
560,6041515.230004436
562,6041512.376609218
564,6041757.7647182075
566,6041652.517029483
568,6041653.496525405
570,6041816.076659503
572,6041277.159598211
574,6041302.124494897
576,6041979.563278395
578,6041723.147375924
580,6041202.647477947
582,6041252.244376933
584,6041586.357358998
586,6041992.301879591
588,6041516.957755943
590,6041478.6499959
592,6041394.714827363
594,6041400.244907884
596,6041442.627993673
598,6041029.029045154
600,6041483.875053922
602,6041434.1192217
604,6041278.148842966
606,6041721.99746375
608,6042054.069977744
610,6041802.4068174055
612,6041359.4619847
614,6041303.810951449
616,6041652.15815721
618,6041642.232587809
620,6041315.8087385185
622,6041329.0662943255
624,6041868.077600619
626,6041594.168159128
628,6041547.448508323
630,6042051.854478419
632,6041340.5950252665
634,6040851.593861517
636,6041200.476068011
638,6041291.107119025
640,6040268.361684767
642,6039381.240564382
644,6040433.818335081
646,6042184.488440909
648,6042842.222760976
650,6041615.810482308
652,6040755.866576662
654,6041398.123285297
656,6041148.948498459
658,6041511.285098159
660,6041551.258087439
662,6041377.486796795
664,6041484.487456362
666,6041443.750090531
668,6041107.991048826
670,6041563.760999666
672,6041267.206276448
674,6041163.483843256
676,6041536.128915831
678,6041346.24345349
680,6041150.289956291
682,6041410.314774397
684,6041560.064687422
686,6041447.9187860545
688,6040955.81893969
690,6041315.875338955
692,6041350.307975556
694,6041850.281893436
696,6041497.367671758
698,6041199.302168769
700,6041453.64627868
702,6041828.693192877
704,6040860.42770877
706,6041675.622792104
708,6041571.681644926
710,6041346.454989626
712,6041546.234560798
714,6041858.824615336
716,6041142.5820534965
718,6041286.403162461
720,6041703.1207177285
722,6041807.585318082
724,6041329.8607438
726,6041296.890614847
728,6041527.288726995
730,6041723.792105585
732,6041192.330811199
734,6041150.1016538385
736,6041704.398114255
738,6041255.137810724
740,6041344.973276121
742,6041402.044472554
744,6041509.896928869
746,6041611.23472158
748,6041281.529689905
750,6041392.455248062
752,6040981.1977447625
754,6041295.389267499
756,6041239.4416478425
758,6041271.659960353
760,6041533.037164191
762,6033170.558480699
764,5997309.196911797
766,5919816.184365741
768,5789128.623488824
770,5591227.92157777
772,5331562.926099856
774,5030824.995786329
776,4699258.250554136
778,4346757.545140255
780,3987299.429810042
782,3631624.3336451664
784,3286378.269654552
786,2964560.482130975
788,2677357.907088312
790,2431812.978824052
792,2227005.630354121
794,2056991.6675400746
796,1912122.286436368
798,1783069.2196949078
800,1663500.214270693
802,1548744.6415391257
804,1440089.3704584274
806,1338355.7413583586
808,1246002.4351940232
810,1164641.9993123675
812,1094313.8934356393
814,1033315.1507154639
816,979276.3012057306
818,928884.3489745458
820,880151.1850921786
822,831067.2044299131
824,781134.7456778135
826,731197.4373941015
828,682133.9307999852
830,635157.065687494
832,590767.9318637582
834,549817.9262336656
836,511926.9827578021
838,476508.58827418834
840,442988.8091633684
842,410512.7161371145
844,378885.83903410326
846,347759.8550145639
848,317145.038704723
850,286997.5341464601
852,257814.11993689087
854,229635.74166079867
856,202883.51438950063
858,177548.2583061767
860,153963.78261275878
862,132580.8515415665
864,113288.53811543316
866,96239.40874515912
868,81413.00428997858
870,68826.20859127876
872,58133.754868965356
874,49160.33286656182
876,41666.7751322839
878,35497.06635140222
880,30295.018445045593
882,25695.68578759554
884,21591.37521759164
886,17852.922836174053
888,14389.809163301048
890,11160.697668091325
892,8122.388938503005
894,5540.658797514908
896,3560.8201047046186
898,2067.8082667675035
900,1036.1379326991748
902,389.7262820249188
904,91.05201843704549
906,33.85408597934234
908,10.175341117526877
910,0.4798427012002451
912,-3.482973111878331
914,2.393407046365594
916,-5.54246237681494
918,-0.29287613119402345
920,-2.3379566926154904
922,4.289920058427215
924,0.9442159283387628
926,-2.7336637591896857
928,1.0006701908683229
930,-1.3057717257606596
932,1.5404292547943992
934,4.001179039549514
936,-1.414773894536123
938,3.248233771030033
940,0.4896997775772239
942,3.269850699677664
944,0.8757233738836303
946,1.835094323646329
948,-1.5911823412967454
950,0.22756291881490442
952,1.4645588048001232
954,3.043621082643513
956,0.027056986644400358
958,-0.10659459427895207
960,-0.7023202398106899
962,-2.0064684457895754
964,-3.0020412361544704
966,-2.2327748367148637
968,-2.2451702637504916
970,3.087313082970052
972,-1.474238603491238
974,-1.3750943045639343
976,0.09099228775895851
978,-4.359327552662422
980,0.17173412192045567
982,0.5883557203648353
984,-0.6237451035931326
986,0.24693956783995888
988,-1.1733774690472267
990,1.089032408027303
992,0.5823660453244227
994,0.22070109661222787
996,-2.4283186811864717
998,-1.410528741235163
