wave,flux
336,322.3130778864244
338,604.3576546507986
340,1023.4309123288949
342,1596.2255777754572
344,2349.362557689789
346,3271.4145225903812
348,4369.696184953119
350,5669.6797427999245
352,7217.697245774098
354,9058.989560588314
356,11273.310308396267
358,13917.00738016054
360,17052.125935671287
362,20705.547724710046
364,24811.569542708858
366,29386.230588444774
368,34581.892291385186
370,40690.869400200674
372,48070.67866641393
374,57389.15113118692
376,69912.35988715329
378,87238.62854276126
380,110779.94625263271
382,141636.36168066922
384,181138.43724528325
386,230513.15531583378
388,290411.56057024794
390,360622.1545653093
392,440097.40271211055
394,527601.1026200419
396,621268.4130847255
398,719125.4402807193
400,819141.1514126145
402,919260.2687844863
404,1018496.1969910676
406,1118560.294213241
408,1222868.4318931196
410,1335006.4907337462
412,1454214.5692127652
414,1577928.8728103042
416,1704002.3375541458
418,1834266.4058666101
420,1974552.5770590005
422,2131400.4512549806
424,2307899.0540388767
426,2503111.301645779
428,2710494.054308804
430,2920469.5519706192
432,3123568.591972519
434,3313322.9211069946
436,3489198.209845514
438,3656194.588116127
440,3823837.684263131
442,3999974.202604959
444,4191781.79211685
446,4399312.798085908
448,4622342.608075046
450,4855574.050817367
452,5095343.978489726
454,5327921.024598941
456,5540563.514916119
458,5722076.431108093
460,5861405.441930844
462,5953178.4860133985
464,6006818.47329607
466,6032283.095838055
468,6040712.804813738
470,6041466.690539668
472,6041360.311932765
474,6041198.949993205
476,6041461.828327449
478,6041662.232694433
480,6041243.895813645
482,6041479.335523181
484,6041375.65484834
486,6041512.159518785
488,6040912.520512806
490,6041643.203257438
492,6041701.141673851
494,6041494.488884538
496,6041561.147235052
498,6041239.224082169
500,6041673.097979748
502,6041631.0342598045
504,6041545.496098918
506,6041241.019303176
508,6041466.325277595
510,6041532.873951295
512,6041530.231548992
514,6041543.6664882945
516,6041125.013966819
518,6041508.018274218
520,6041075.485079734
522,6041436.339807364
524,6041369.087502383
526,6041232.512353389
528,6041927.697744572
530,6041727.532696699
532,6041644.824545546
534,6041037.899830816
536,6041565.186301813
538,6041490.432935048
540,6041166.013488409
542,6041188.516227322
544,6041718.135824682
546,6041652.848239294
548,6041370.843091893
550,6041288.358579702
552,6041203.113776672
554,6041704.527086219
556,6041678.388409281
558,6041203.563973614
560,6041471.489941443
562,6041561.028109602
564,6041485.291608177
566,6041194.043723245
568,6041653.577626281
570,6041731.330024373
572,6041184.469714323
574,6041466.863130691
576,6041382.888846664
578,6041270.613820073
580,6041335.811706447
582,6041242.592747759
584,6041231.43050658
586,6041333.014164607
588,6041102.135300732
590,6041435.832514592
592,6041449.275291327
594,6041604.351634276
596,6041967.478704348
598,6041514.295732263
600,6041520.342479184
602,6041345.480946147
604,6041070.84126224
606,6041313.0661356
608,6041827.454607504
610,6041455.148168743
612,6041417.683106126
614,6041631.268001988
616,6041085.1485059075
618,6040864.904133511
620,6041405.727679763
622,6041763.31548698
624,6041123.490271751
626,6041043.1646908475
628,6040323.420740029
630,6039025.199748237
632,6040121.169978144
634,6042014.864057412
636,6043249.835353759
638,6043879.408607092
640,6044017.914427185
642,6043779.683423808
644,6043279.046206735
646,6042630.3333857395
648,6041947.875570592
650,6041346.003371068
652,6040939.047396942
654,6040841.338257982
656,6041164.171332536
658,6041512.265705034
660,6041551.286280696
662,6041377.486209039
664,6041484.487342387
666,6041443.750082605
668,6041107.99104846
670,6041563.760999656
672,6041267.2062764475
674,6041163.483843256
676,6041536.128915831
678,6041346.24345349
680,6041150.289956291
682,6041410.314774397
684,6041560.064687422
686,6041447.9187860545
688,6040955.81893969
690,6041315.875338955
692,6041350.307975556
694,6041850.281893436
696,6041497.367671758
698,6041199.302168769
700,6041453.64627868
702,6041828.693192877
704,6040860.42770877
706,6041675.622792104
708,6041571.681644926
710,6041346.454989626
712,6041546.234560798
714,6041858.824615336
716,6041142.5820534965
718,6041286.403162461
720,6041703.1207177285
722,6041807.585318082
724,6041329.8607438
726,6041296.890614847
728,6041527.288726995
730,6041723.792105585
732,6041192.330811199
734,6041150.1016538385
736,6041704.398114255
738,6041255.137810724
740,6041344.973276121
742,6041402.044472554
744,6041509.896928869
746,6041611.23472158
748,6041281.529689905
750,6041392.455248062
752,6040981.1977447625
754,6041295.389267499
756,6041239.4416478425
758,6041271.659960353
760,6041533.037164191
762,6033170.558480699
764,5997309.196911797
766,5919816.184365741
768,5789128.623488824
770,5591227.92157777
772,5331562.926099856
774,5030824.995786329
776,4699258.250554136
778,4346757.545140255
780,3987299.429810042
782,3631624.3336451664
784,3286378.269654552
786,2964560.482130975
788,2677357.907088312
790,2431812.978824052
792,2227005.630354121
794,2056991.6675400746
796,1912122.286436368
798,1783069.2196949078
800,1663500.214270693
802,1548744.6415391257
804,1440089.3704584274
806,1338355.7413583586
808,1246002.4351940232
810,1164641.9993123675
812,1094313.8934356393
814,1033315.1507154639
816,979276.3012057306
818,928884.3489745458
820,880151.1850921786
822,831067.2044299131
824,781134.7456778135
826,731197.4373941015
828,682133.9307999852
830,635157.065687494
832,590767.9318637582
834,549817.9262336656
836,511926.9827578021
838,476508.58827418834
840,442988.8091633684
842,410512.7161371145
844,378885.83903410326
846,347759.8550145639
848,317145.038704723
850,286997.5341464601
852,257814.11993689087
854,229635.74166079867
856,202883.51438950063
858,177548.2583061767
860,153963.78261275878
862,132580.8515415665
864,113288.53811543316
866,96239.40874515912
868,81413.00428997858
870,68826.20859127876
872,58133.754868965356
874,49160.33286656182
876,41666.7751322839
878,35497.06635140222
880,30295.018445045593
882,25695.68578759554
884,21591.37521759164
886,17852.922836174053
888,14389.809163301048
890,11160.697668091325
892,8122.388938503005
894,5540.658797514908
896,3560.8201047046186
898,2067.8082667675035
900,1036.1379326991748
902,389.7262820249188
904,91.05201843704549
906,33.85408597934234
908,10.175341117526877
910,0.4798427012002451
912,-3.482973111878331
914,2.393407046365594
916,-5.54246237681494
918,-0.29287613119402345
920,-2.3379566926154904
922,4.289920058427215
924,0.9442159283387628
926,-2.7336637591896857
928,1.0006701908683229
930,-1.3057717257606596
932,1.5404292547943992
934,4.001179039549514
936,-1.414773894536123
938,3.248233771030033
940,0.4896997775772239
942,3.269850699677664
944,0.8757233738836303
946,1.835094323646329
948,-1.5911823412967454
950,0.22756291881490442
952,1.4645588048001232
954,3.043621082643513
956,0.027056986644400358
958,-0.10659459427895207
960,-0.7023202398106899
962,-2.0064684457895754
964,-3.0020412361544704
966,-2.2327748367148637
968,-2.2451702637504916
970,3.087313082970052
972,-1.474238603491238
974,-1.3750943045639343
976,0.09099228775895851
978,-4.359327552662422
980,0.17173412192045567
982,0.5883557203648353
984,-0.6237451035931326
986,0.24693956783995888
988,-1.1733774690472267
990,1.089032408027303
992,0.5823660453244227
994,0.22070109661222787
996,-2.4283186811864717
998,-1.410528741235163
