wave,flux
336,766.18899532256
338,3513.99854048359
340,6745.113054941001
342,11775.128118198976
344,17781.778002184543
346,21672.14469792004
348,25521.141172135045
350,33150.645589525615
352,45697.773893401536
354,59770.27520811939
356,72773.63747819237
358,85659.76070248247
360,100119.2559734408
362,115902.48403256955
364,131631.1606086202
366,146071.9199924626
368,159082.8859541349
370,173336.34577377772
372,190894.09134223036
374,212506.68059522277
376,239426.89626228562
378,274907.19527087355
380,326923.2754656975
382,419941.6195056098
384,604376.0390106803
386,943482.004146768
388,1464626.8234285843
390,2120564.921566031
392,2818364.7960793055
394,3493783.60091982
396,4116833.984313668
398,4624388.179472174
400,4901457.829433655
402,4884396.602829853
404,4694307.53786442
406,4610723.033702854
408,4798121.840067747
410,5220774.155575318
412,5648621.750539502
414,5919512.1450405065
416,6029640.441482816
418,6040841.151350505
420,6041480.790744594
422,6041378.757700781
424,6041428.077909736
426,6040640.7635051105
428,6002942.251035237
430,5857081.104230349
432,5534410.779308973
434,4992300.712084317
436,4283744.377024579
438,3527542.122843353
440,2836582.8406679137
442,2291270.1497146413
444,1909135.6047552638
446,1662227.9219780012
448,1522672.707555884
450,1475695.11533596
452,1521588.3170986872
454,1778492.3360861114
456,2255009.1824101107
458,2913815.1844684514
460,3712305.9592370708
462,4555993.526010181
464,5202351.1302468395
466,5653562.248679772
468,5926043.194857413
470,6038922.066438043
472,6041282.003468077
474,6040995.859615985
476,6041316.169815469
478,6041489.0142109
480,6041133.695072172
482,6041521.328412453
484,6041556.122419272
486,6041484.42458479
488,6041066.700200408
490,6041489.906863436
492,6041587.714081504
494,6041670.224253446
496,6041387.641214671
498,6041615.784323591
500,6041516.131139628
502,6041578.4040321885
504,6041331.142074026
506,6041334.190710608
508,6041543.389867013
510,6041318.7703907555
512,6041548.181903241
514,6041189.045216787
516,6041517.021790921
518,6041575.443314534
520,6041192.654674928
522,6041673.477931107
524,6041723.958328085
526,6041609.787017294
528,6041295.9459423935
530,6041471.764446389
532,6041434.345214749
534,6041329.579163942
536,6041772.253505719
538,6041397.943853729
540,6041161.074874268
542,6041037.104032325
544,6041320.98798123
546,6041007.8069293685
548,6041113.40167407
550,6041490.305761231
552,6041607.926522484
554,6042092.053242551
556,6041780.872234519
558,6041557.833342159
560,6041362.737755521
562,6041099.0875609815
564,6041322.229865525
566,6041308.514694063
568,6041657.209421685
570,6041674.0880444925
572,6041362.151215907
574,6041320.686004756
576,6041320.318760926
578,6041533.164616677
580,6041458.70827625
582,6041567.732320031
584,6041904.10632877
586,6041272.038912065
588,6041297.567397129
590,6041378.864018105
592,6041477.537961302
594,6041312.493173619
596,6041202.3481227895
598,6041789.04054689
600,6041814.331537579
602,6041462.033714163
604,6041295.403490022
606,6041252.441094244
608,6040983.7845209185
610,6040969.053122292
612,6041278.735723037
614,6041299.915976892
616,6040809.027284658
618,6040900.418549963
620,6040865.316610949
622,6040567.669095953
624,6040839.935013356
626,6041780.827739744
628,6041950.0614425205
630,6041343.284218339
632,6041835.085989422
634,6040462.152291904
636,6038934.108336987
638,6041744.496711443
640,6043436.450014953
642,6042391.7126628375
644,6041324.799238309
646,6041810.674240633
648,6042889.8290983355
650,6042860.128260072
652,6043109.954012562
654,6043193.379996854
656,6041644.589642556
658,6041879.54125072
660,6043941.406528039
662,6042853.794510321
664,6040735.925703238
666,6040850.736325181
668,6041615.94502677
670,6041949.510778459
672,6041798.2249230575
674,6041145.201169328
676,6041534.519987007
678,6041346.130071633
680,6041150.28283954
682,6041410.314360899
684,6041560.064664756
686,6041447.918784866
688,6040955.818939628
690,6041315.875338951
692,6041350.307975555
694,6041850.281893436
696,6041497.367671758
698,6041199.302168769
700,6041453.64627868
702,6041828.693192877
704,6040860.42770877
706,6041675.622792104
708,6041571.681644926
710,6041346.454989626
712,6041546.234560798
714,6041858.824615336
716,6041142.5820534965
718,6041286.403162461
720,6041703.1207177285
722,6041807.585318082
724,6041329.8607438
726,6041296.890614847
728,6041527.288726995
730,6041723.792105585
732,6041192.330811199
734,6041150.1016538385
736,6041704.398114255
738,6041255.137810724
740,6041344.973276121
742,6041402.044472554
744,6041509.896928869
746,6041611.23472158
748,6041281.529689905
750,6041392.455248062
752,6040981.1977447625
754,6041295.389267499
756,6041239.4416478425
758,6041271.659960353
760,6041533.037164191
762,6033170.558480699
764,5997309.196911797
766,5919816.184365741
768,5789128.623488824
770,5591227.92157777
772,5331562.926099856
774,5030824.995786329
776,4699258.250554136
778,4346757.545140255
780,3987299.429810042
782,3631624.3336451664
784,3286378.269654552
786,2964560.482130975
788,2677357.907088312
790,2431812.978824052
792,2227005.630354121
794,2056991.6675400746
796,1912122.286436368
798,1783069.2196949078
800,1663500.214270693
802,1548744.6415391257
804,1440089.3704584274
806,1338355.7413583586
808,1246002.4351940232
810,1164641.9993123675
812,1094313.8934356393
814,1033315.1507154639
816,979276.3012057306
818,928884.3489745458
820,880151.1850921786
822,831067.2044299131
824,781134.7456778135
826,731197.4373941015
828,682133.9307999852
830,635157.065687494
832,590767.9318637582
834,549817.9262336656
836,511926.9827578021
838,476508.58827418834
840,442988.8091633684
842,410512.7161371145
844,378885.83903410326
846,347759.8550145639
848,317145.038704723
850,286997.5341464601
852,257814.11993689087
854,229635.74166079867
856,202883.51438950063
858,177548.2583061767
860,153963.78261275878
862,132580.8515415665
864,113288.53811543316
866,96239.40874515912
868,81413.00428997858
870,68826.20859127876
872,58133.754868965356
874,49160.33286656182
876,41666.7751322839
878,35497.06635140222
880,30295.018445045593
882,25695.68578759554
884,21591.37521759164
886,17852.922836174053
888,14389.809163301048
890,11160.697668091325
892,8122.388938503005
894,5540.658797514908
896,3560.8201047046186
898,2067.8082667675035
900,1036.1379326991748
902,389.7262820249188
904,91.05201843704549
906,33.85408597934234
908,10.175341117526877
910,0.4798427012002451
912,-3.482973111878331
914,2.393407046365594
916,-5.54246237681494
918,-0.29287613119402345
920,-2.3379566926154904
922,4.289920058427215
924,0.9442159283387628
926,-2.7336637591896857
928,1.0006701908683229
930,-1.3057717257606596
932,1.5404292547943992
934,4.001179039549514
936,-1.414773894536123
938,3.248233771030033
940,0.4896997775772239
942,3.269850699677664
944,0.8757233738836303
946,1.835094323646329
948,-1.5911823412967454
950,0.22756291881490442
952,1.4645588048001232
954,3.043621082643513
956,0.027056986644400358
958,-0.10659459427895207
960,-0.7023202398106899
962,-2.0064684457895754
964,-3.0020412361544704
966,-2.2327748367148637
968,-2.2451702637504916
970,3.087313082970052
972,-1.474238603491238
974,-1.3750943045639343
976,0.09099228775895851
978,-4.359327552662422
980,0.17173412192045567
982,0.5883557203648353
984,-0.6237451035931326
986,0.24693956783995888
988,-1.1733774690472267
990,1.089032408027303
992,0.5823660453244227
994,0.22070109661222787
996,-2.4283186811864717
998,-1.410528741235163
