wave,flux
336,15.140630003140233
338,183.5659603406626
340,591.0545896601946
342,1077.8862759450815
344,1530.72964431157
346,2031.391952039071
348,2650.420587305852
350,3428.093761650291
352,4505.6075871987805
354,5688.690331641034
356,6791.149460514705
358,8108.515760707243
360,9953.377630933785
362,12150.27683984861
364,14434.370157164676
366,16755.96006834744
368,19071.135499961263
370,21567.54467687816
372,24450.80385201006
374,27839.462142861306
376,31509.885757185442
378,35705.80498768936
380,40963.688422005085
382,48620.96734820032
384,61758.99057637163
386,86250.37799076072
388,129507.72271966391
390,197009.29030108108
392,287456.47921265627
394,387109.43224446784
396,476599.2062255076
398,540188.5601953146
400,578744.0683174584
402,604001.9282353423
404,631356.6445193861
406,672015.6325182236
408,733127.9351396088
410,816983.493052484
412,918304.8744552082
414,1021480.9156678341
416,1106321.6377331424
418,1158843.603792305
420,1182585.3085529802
422,1199360.1009945793
424,1235877.6540039002
426,1307757.11641185
428,1410724.7021718821
430,1524287.4904347018
432,1624869.7013616017
434,1696743.4039406101
436,1738574.8170604003
438,1760485.4508417551
440,1779208.0016021086
442,1810245.9625280083
444,1865752.9859510385
446,1950992.31288674
448,2065765.6791210975
450,2202061.085420677
452,2348127.195132038
454,2496013.7067047805
456,2638001.804295191
458,2771213.9011195074
460,2897941.879127762
462,3026225.499931004
464,3161148.7563231755
466,3322399.161832999
468,3532625.387946157
470,3812450.7822243134
472,4156781.6429381277
474,4546198.225326818
476,4947691.060187962
478,5319732.947315227
480,5615433.548436794
482,5821511.074494753
484,5950082.642896272
486,6016379.612849968
488,6039493.504258196
490,6041631.847615611
492,6040987.806074025
494,6041628.66670928
496,6041202.726361907
498,6041438.980536378
500,6041237.419073451
502,6041217.76194945
504,6041181.12211473
506,6041519.616702867
508,6041258.1965888385
510,6041674.037662494
512,6041343.312303489
514,6041069.166818107
516,6041002.9298251085
518,6041374.459334903
520,6041163.157397868
522,6041291.847354225
524,6041796.2268930115
526,6041148.673790549
528,6041748.906530448
530,6041396.53533558
532,6041589.297168235
534,6041444.120989887
536,6041617.890755346
538,6041359.330314717
540,6041131.210205612
542,6041017.819276482
544,6041451.339148323
546,6041112.001299958
548,6041016.212631558
550,6041363.67947418
552,6041970.581082191
554,6041934.436910466
556,6041182.157330946
558,6041029.945971874
560,6041283.7006796785
562,6041521.4247140875
564,6041332.617733518
566,6041508.187989405
568,6041203.096630808
570,6041639.70937562
572,6041455.047013415
574,6041633.221732241
576,6041452.042568674
578,6041730.899087857
580,6041619.774137415
582,6041220.1906635715
584,6041468.97644928
586,6041347.982530903
588,6041500.387351789
590,6042122.547589986
592,6041858.225423834
594,6041424.637114631
596,6041572.190151994
598,6041463.336109167
600,6041482.867226783
602,6041520.936254364
604,6041317.326667467
606,6041176.052712087
608,6041391.2724322695
610,6041042.510096882
612,6041239.116990971
614,6041706.982900622
616,6041436.743047713
618,6041572.616540052
620,6041252.676396475
622,6041155.536352596
624,6042328.012339847
626,6041885.741231928
628,6041383.196053551
630,6042289.089021769
632,6042706.685547912
634,6041899.288155497
636,6041345.406501477
638,6042840.547885866
640,6043689.291326911
642,6043151.158509699
644,6042353.238629432
646,6041327.112875848
648,6041262.014593141
650,6042983.226136953
652,6043096.214343879
654,6041447.052856539
656,6040863.894630081
658,6041276.063573476
660,6041709.548891954
662,6041280.556074832
664,6040712.161783117
666,6040974.06221751
668,6041952.606465732
670,6042942.366554058
672,6043016.389167329
674,6042124.386983175
676,6040691.8740929365
678,6039504.774718452
680,6039224.075712204
682,6040184.879321536
684,6041516.67425717
686,6041947.408754378
688,6040945.288509621
690,6041315.341544442
692,6041350.27951823
694,6041850.280153556
696,6041497.367540663
698,6041199.302156842
700,6041453.64627748
702,6041828.693192753
704,6040860.427708759
706,6041675.622792103
708,6041571.681644925
710,6041346.454989626
712,6041546.234560798
714,6041858.824615336
716,6041142.5820534965
718,6041286.403162461
720,6041703.1207177285
722,6041807.585318082
724,6041329.8607438
726,6041296.890614847
728,6041527.288726995
730,6041723.792105585
732,6041192.330811199
734,6041150.1016538385
736,6041704.398114255
738,6041255.137810724
740,6041344.973276121
742,6041402.044472554
744,6041509.896928869
746,6041611.23472158
748,6041281.529689905
750,6041392.455248062
752,6040981.1977447625
754,6041295.389267499
756,6041239.4416478425
758,6041271.659960353
760,6041533.037164191
762,6033170.558480699
764,5997309.196911797
766,5919816.184365741
768,5789128.623488824
770,5591227.92157777
772,5331562.926099856
774,5030824.995786329
776,4699258.250554136
778,4346757.545140255
780,3987299.429810042
782,3631624.3336451664
784,3286378.269654552
786,2964560.482130975
788,2677357.907088312
790,2431812.978824052
792,2227005.630354121
794,2056991.6675400746
796,1912122.286436368
798,1783069.2196949078
800,1663500.214270693
802,1548744.6415391257
804,1440089.3704584274
806,1338355.7413583586
808,1246002.4351940232
810,1164641.9993123675
812,1094313.8934356393
814,1033315.1507154639
816,979276.3012057306
818,928884.3489745458
820,880151.1850921786
822,831067.2044299131
824,781134.7456778135
826,731197.4373941015
828,682133.9307999852
830,635157.065687494
832,590767.9318637582
834,549817.9262336656
836,511926.9827578021
838,476508.58827418834
840,442988.8091633684
842,410512.7161371145
844,378885.83903410326
846,347759.8550145639
848,317145.038704723
850,286997.5341464601
852,257814.11993689087
854,229635.74166079867
856,202883.51438950063
858,177548.2583061767
860,153963.78261275878
862,132580.8515415665
864,113288.53811543316
866,96239.40874515912
868,81413.00428997858
870,68826.20859127876
872,58133.754868965356
874,49160.33286656182
876,41666.7751322839
878,35497.06635140222
880,30295.018445045593
882,25695.68578759554
884,21591.37521759164
886,17852.922836174053
888,14389.809163301048
890,11160.697668091325
892,8122.388938503005
894,5540.658797514908
896,3560.8201047046186
898,2067.8082667675035
900,1036.1379326991748
902,389.7262820249188
904,91.05201843704549
906,33.85408597934234
908,10.175341117526877
910,0.4798427012002451
912,-3.482973111878331
914,2.393407046365594
916,-5.54246237681494
918,-0.29287613119402345
920,-2.3379566926154904
922,4.289920058427215
924,0.9442159283387628
926,-2.7336637591896857
928,1.0006701908683229
930,-1.3057717257606596
932,1.5404292547943992
934,4.001179039549514
936,-1.414773894536123
938,3.248233771030033
940,0.4896997775772239
942,3.269850699677664
944,0.8757233738836303
946,1.835094323646329
948,-1.5911823412967454
950,0.22756291881490442
952,1.4645588048001232
954,3.043621082643513
956,0.027056986644400358
958,-0.10659459427895207
960,-0.7023202398106899
962,-2.0064684457895754
964,-3.0020412361544704
966,-2.2327748367148637
968,-2.2451702637504916
970,3.087313082970052
972,-1.474238603491238
974,-1.3750943045639343
976,0.09099228775895851
978,-4.359327552662422
980,0.17173412192045567
982,0.5883557203648353
984,-0.6237451035931326
986,0.24693956783995888
988,-1.1733774690472267
990,1.089032408027303
992,0.5823660453244227
994,0.22070109661222787
996,-2.4283186811864717
998,-1.410528741235163
