wave,flux
336,25624.254840831436
338,34603.29220052065
340,50086.764363758564
342,74409.48545369809
344,109656.04262077351
346,156630.41554946566
348,212177.76326486416
350,271050.1115310336
352,328681.7410071724
354,380253.7355108481
356,420194.54437558335
358,446788.8326615691
360,465603.8360380856
362,485556.55401742586
364,516940.3530387335
366,575530.4003192028
368,673774.858583821
370,797567.4951968916
372,905928.486121837
374,975542.0823158326
376,1034279.3780120699
378,1140092.0316830857
380,1325246.3661669132
382,1563441.6962038598
384,1783307.5816223323
386,1909806.4806994905
388,1918704.8411731613
390,1858821.719222989
392,1814850.0412747469
394,1834500.2742058793
396,1897778.4190915136
398,1950466.0076729506
400,1975929.82937127
402,1998656.0770951496
404,2051170.1077149145
406,2139804.2567505734
408,2245217.726182246
410,2346229.946906547
412,2431104.384565317
414,2503030.6841939073
416,2571643.042632607
418,2650759.363859715
420,2755460.734761085
422,2900477.561390826
424,3098280.883218796
426,3355821.0505426098
428,3664814.2810370843
430,3993156.7217197292
432,4289645.341650495
434,4499957.004213374
436,4597965.107069799
438,4596286.199545158
440,4545169.158769155
442,4503584.676947551
444,4515588.318311921
446,4603322.142528523
448,4768132.848470494
450,4993407.6878286395
452,5246606.837429603
454,5498535.632597112
456,5717146.030071524
458,5873878.777066539
460,5971645.318769979
462,6022466.526169217
464,6039631.82130513
466,6041642.786390313
468,6041632.2997196205
470,6041206.584988171
472,6041429.753457513
474,6040825.937196913
476,6041629.740576183
478,6041465.1940882215
480,6041374.690317553
482,6041599.228015493
484,6041350.656597314
486,6041190.458100904
488,6041373.533995431
490,6041450.795448851
492,6041768.241265725
494,6041583.169449871
496,6041116.190478699
498,6041402.361209968
500,6041575.158353675
502,6041427.013964575
504,6041671.068135986
506,6041573.538101129
508,6041514.668977247
510,6041634.63095579
512,6041036.3776549315
514,6041415.31256567
516,6041630.290652478
518,6041535.022840703
520,6041379.766144962
522,6041357.555358808
524,6041249.852054508
526,6041663.083289951
528,6041682.381558372
530,6041444.225475716
532,6041391.553111849
534,6041441.923410581
536,6041308.660190812
538,6041327.443452797
540,6041034.530990562
542,6041202.97635476
544,6041308.118521429
546,6040947.675346602
548,6041327.941604894
550,6041683.5228899475
552,6041460.877976971
554,6041560.676263632
556,6041777.552107401
558,6041479.013727168
560,6041316.937779745
562,6041273.055126853
564,6040983.306057844
566,6041688.945156757
568,6041399.600577454
570,6041867.773312397
572,6041443.490524906
574,6041348.15276756
576,6041439.837079172
578,6041297.5855446765
580,6041417.25441678
582,6041664.503027105
584,6041737.5599971805
586,6041643.61742779
588,6040578.962510739
590,6041010.921099577
592,6041315.731541304
594,6041323.57261585
596,6041483.408748837
598,6041156.944783414
600,6041559.89017757
602,6041551.862059075
604,6041347.089139278
606,6041617.96242696
608,6041976.020706902
610,6041894.622350719
612,6041962.722148005
614,6042228.783640603
616,6042045.461287405
618,6041290.424814065
620,6040881.1426896425
622,6041193.4063643245
624,6041513.569538961
626,6040872.270637313
628,6041407.174834236
630,6042937.156422246
632,6041527.894986393
634,6040684.825696799
636,6041572.141535108
638,6041768.982618391
640,6041641.555900467
642,6041471.617268036
644,6041219.317380165
646,6041413.978206155
648,6041368.1047723815
650,6040401.526018937
652,6040859.194899702
654,6042228.687485247
656,6041814.254571987
658,6040819.763466565
660,6040695.81159029
662,6041628.163009163
664,6042194.127145386
666,6041757.123976084
668,6042815.112987678
670,6044439.289641502
672,6043245.879367844
674,6040745.645266567
676,6039140.278794205
678,6038519.735342566
680,6038707.057339996
682,6039525.2872148445
684,6040797.467395457
686,6042346.640310186
688,6043995.84838737
690,6045568.134055367
692,6046886.5397425145
694,6047774.107877167
696,6048053.880887668
698,6047548.901202367
700,6046082.2112496095
702,6043476.853457744
704,6037219.080761995
706,5951724.031171711
708,5677966.105111983
710,5162968.666534981
712,4405307.474435795
714,3548944.434451988
716,2846009.7540866337
718,2453661.4333682656
720,2419220.3422449096
722,2676694.0889729764
724,3048913.6254117647
726,3389248.709982756
728,3618144.8515051617
730,3722137.702312947
732,3724791.788435692
734,3658404.4125140877
736,3547834.2454693303
738,3411675.500376602
740,3281266.425205566
742,3220614.031094965
744,3316280.339533644
746,3595735.003019999
748,4047483.8014821163
750,4612418.638226807
752,5161899.294229332
754,5580346.684506076
756,5857472.684458509
758,5999635.480765513
760,6040396.669877499
762,6041323.906649766
764,6041288.445309765
766,6041451.089874661
768,6041587.580499393
770,6041268.369628185
772,6041458.212543554
774,6041377.531029057
776,6041771.95956914
778,6041341.789343996
780,6041235.569972832
782,6041187.349605781
784,6041689.922716313
786,6041526.493043188
788,6041161.279845747
790,6041264.655395237
792,6041394.191541192
794,6041346.483226518
796,6041563.467301391
798,6041393.992767638
800,6041013.848625732
802,6041242.71017467
804,6041633.697830491
806,6041474.851867494
808,6041340.206483702
810,6040476.896812299
812,6030501.471913005
814,6010709.327717278
816,5987113.258550818
818,5965160.873649464
820,5941485.304477537
822,5927125.592603402
824,5933677.723957823
826,5954920.18707
828,5976746.520973438
830,5999050.133835595
832,6021168.56550896
834,6036487.02449733
836,6041779.136217378
838,6041158.936430674
840,6041451.2533222
842,6041120.3227281
844,6041544.202064093
846,6041314.459414491
848,6041515.74623968
850,6041214.988796121
852,6041375.199370071
854,6041300.454584308
856,6041272.207297666
858,6041478.228599308
860,6041336.6226767
862,6041496.336655661
864,6041342.507455706
866,6041349.310111891
868,6041224.591401995
870,6041703.066376171
872,6041125.557385189
874,6041533.641872476
876,6041379.613836721
878,6041076.450878949
880,6041717.021392829
882,6041175.435711568
884,6041462.522676468
886,6041438.248078431
888,6041078.8591638245
890,6041345.767291883
892,6041448.674007037
894,6041456.225925874
896,6041311.731219381
898,6041663.663880635
900,6041478.51256387
902,6041398.694606588
904,6041325.065686952
906,6041263.687185237
908,6041038.942341128
910,6041264.691251243
912,6041009.391292178
914,6041740.308603801
916,6041490.393460887
918,6041154.245836258
920,6041231.965370912
922,6041162.662288789
924,6041532.939179378
926,6041509.963560465
928,6041375.349341608
930,6041784.108832992
932,6041477.139523257
934,6041746.767053641
936,6041442.910545951
938,6041427.660100521
940,6041436.737883927
942,6041299.916195709
944,6041672.938163029
946,6041972.737847948
948,6040997.4976437865
950,6041527.172483896
952,6041360.037925265
954,6041204.110806951
956,6041323.610330461
958,6041410.761771096
960,6041213.829537946
962,6041098.631738511
964,6041349.653596208
966,6041047.612606475
968,6042010.401726091
970,6041055.470805336
972,6041664.452700466
974,6041102.703915492
976,6041583.618326493
978,6041597.810315059
980,6042227.292573821
982,6042681.469365726
984,6040917.766485885
986,6040888.242716824
988,6040755.737442582
990,6041424.138361211
992,6041273.104059525
994,6041908.471368191
996,6033311.589377661
998,6001775.252673258
