wave,flux
306.2504509,357.7814576
306.5604242,592.6390811
306.871524,912.7536054
307.1837571,1318.875547
307.4971302,1834.537555
307.8116501,2464.644871
308.1273236,2909.78633
308.4441577,3427.103487
308.7621594,3993.408781
309.0813356,4626.325577
309.4016935,5320.573694
309.7232403,6092.878778
310.045983,6927.290092
310.369929,7832.437697
310.6950856,8800.698339
311.0214601,9810.92563
311.3490601,10905.60208
311.6778931,12042.21279
312.0079665,13211.06017
312.3392881,14445.33838
312.6718655,15695.17939
313.0057064,16969.43904
313.3408189,18307.58261
313.6772106,19679.17251
314.0148896,21067.07924
314.3538639,22497.44519
314.6941415,23989.74624
315.0357308,25488.65293
315.3786398,27020.70415
315.7228769,28541.3762
316.0684504,30136.86076
316.4153688,31722.03597
316.7636407,33264.21083
317.1132746,34835.82573
317.4642791,36332.75186
317.8166631,37820.10454
318.1704352,39293.98039
318.5256045,40739.64744
318.8821799,42198.58623
319.2401704,43644.3885
319.5995851,45082.78199
319.9604333,46538.58625
320.3227243,48018.7026
320.6864673,49608.56064
321.0516719,51134.93275
321.4183476,52766.36553
321.786504,54468.09283
322.1561508,56113.78475
322.5272977,57941.53357
322.8999548,59745.94992
323.2741319,61704.34852
323.649839,63729.45307
324.0270864,65737.3054
324.4058842,67935.48005
324.7862428,70278.47934
325.1681726,72686.9634
325.5516841,75339.64175
325.9367879,78007.96341
326.3234948,80961.1511
326.7118154,83915.15485
327.1017607,87153.1368
327.4933418,90539.89277
327.8865696,94050.16004
328.2814555,97665.12689
328.6780106,101453.9001
329.0762465,105346.6322
329.4761746,109372.342
329.8778065,113449.7879
330.281154,117804.2464
330.6862289,122129.0444
331.0930432,126600.8768
331.5016088,131177.594
331.911938,136000.7082
332.3240431,140999.0029
332.7379364,146222.1992
333.1536305,151870.5118
333.571138,158124.9662
333.9904716,165038.3706
334.4116443,172850.6468
334.834669,182076.7745
335.2595588,192768.558
335.686327,205556.4706
336.114987,220988.0948
336.5455522,239254.7895
336.9780363,261350.2736
337.4124531,287415.9798
337.8488164,318211.4209
338.2871402,354250.4926
338.7274388,395801.2543
339.1697264,443839.8338
339.6140175,498536.4261
340.0603266,560503.9041
340.5086685,630383.7182
340.959058,708259.7621
341.4115102,795084.3603
341.8660403,892019.1124
342.3226634,998518.436
342.7813952,1115927.146
343.2422511,1244522.797
343.7052471,1384644.678
344.1703989,1536482.682
344.6377228,1699019.133
345.1072349,1872409.766
345.5789517,2054805.722
346.0528897,2245636.171
346.5290657,2443131.276
347.0074967,2644524.928
347.4881996,2848281.592
347.9711917,3051225.073
348.4564906,3251911.638
348.9441137,3447136.735
349.434079,3634177.92
349.9264043,3812292.283
350.4211078,3978907.315
350.9182079,4132987.449
351.4177232,4273596.747
351.9196722,4399249.706
352.4240741,4511451.773
352.9309478,4607136.625
353.4403127,4687411.133
353.9521884,4751781.012
354.4665945,4799027.591
354.983551,4829191.02
355.503078,4840292.297
356.025196,4831655.895
356.5499253,4802492.062
357.077287,4751416.203
357.6073018,4679340.44
358.1399912,4585987.359
358.6753765,4471657.16
359.2134795,4339255.512
359.754322,4191007.693
360.2979263,4030498.072
360.8443147,3860751.971
361.3935098,3685731.8
361.9455346,3508905.754
362.5004122,3333194.618
363.058166,3161133.035
363.6188196,2995012.669
364.1823969,2835407.954
364.7489221,2683347.206
365.3184196,2539194.636
365.8909141,2402314.999
366.4664305,2273606.853
367.0449943,2153112.052
367.6266307,2040803.408
368.2113658,1937205.61
368.7992255,1843561.631
369.3902363,1760550.445
369.9844249,1689613.45
370.5818182,1631249.538
371.1824436,1585580.514
371.7863286,1553989.177
372.3935012,1534578.928
373.0039896,1526867.88
373.6178223,1528539.062
374.2350283,1538158.065
374.8556368,1552422.946
375.4796772,1568597.215
376.1071796,1583762.907
376.7381741,1595115.914
377.3726913,1600355.396
378.0107622,1598103.142
378.652418,1587657.101
379.2976904,1569644.845
379.9466115,1545586.08
380.5992136,1517657.575
381.2555296,1490030.361
381.9155926,1467223.465
382.5794362,1454083.941
383.2470943,1456464.013
383.9186014,1478939.169
384.5939922,1525921.963
385.2733019,1600610.682
385.9565661,1705079.903
386.6438209,1838908.469
387.3351027,1999677.791
388.0304484,2184142.618
388.7298955,2386624.964
389.4334817,2599471.422
390.1412452,2816412.499
390.853225,3028775.993
391.56946,3230139.563
392.2899901,3413891.775
393.0148555,3577001.298
393.7440968,3716410.244
394.4777551,3833291.4
395.2158722,3929447.079
395.9584903,4009809.937
396.7056521,4079862.224
397.457401,4146377.399
398.2137806,4215905.653
398.9748353,4295284.937
399.7406101,4387797.035
400.5111505,4496833.159
401.2865024,4623098.369
402.0667126,4765650.552
402.8518283,4920815.944
403.6418973,5082732.91
404.436968,5245013.559
405.2370896,5400465.106
406.0423117,5544863.989
406.8526847,5672715.036
407.6682596,5781156.444
408.4890879,5866806.316
409.3152221,5931405.458
410.1467152,5977271.732
410.9836208,6007688.777
411.8259934,6026618.203
412.673888,6036329.099
413.5273605,6040522.957
414.3864676,6041090.342
415.2512664,6041529.545
416.1218152,6041343.217
416.9981727,6041195.395
417.8803987,6041486.581
418.7685535,6041632.792
419.6626985,6041572.188
420.5628957,6041327.163
421.4692081,6040955.719
422.3816994,6041061.425
423.3004343,6041833.728
424.2254783,6041664.174
425.1568978,6040922.942
426.0947602,6041274.033
427.0391337,6041222.457
427.9900874,6041152.772
428.9476917,6041699.183
429.9120175,6041437.689
430.8831369,6041699.671
431.8611232,6041218.506
432.8460504,6041322.906
433.8379937,6041616.383
434.8370293,6041243.903
435.8432345,6041544.192
436.8566878,6041355.443
437.8774686,6041521.849
438.9056575,6041434.61
439.9413364,6041335.627
440.9845882,6041722.994
442.035497,6041280.214
443.0941482,6041299.641
444.1606283,6041399.871
445.2350252,6041399.19
446.317428,6041031.89
447.407927,6041337.649
448.5066141,6041568.165
449.6135822,6041387.062
450.7289258,6041266.502
451.8527406,6041531.907
452.9851239,6041410.299
454.1261744,6041378.562
455.2759921,6041234.261
456.4346788,6041593.947
457.6023374,6041292.436
458.7790727,6041268.384
459.9649909,6041340.457
461.1601998,6041674.287
462.364809,6040776.821
463.5789295,6036147.356
464.8026741,6022899.087
466.0361575,5995995.987
467.2794957,5951306.736
468.532807,5883084.764
469.7962111,5787005.878
471.0698299,5657087.263
472.3537868,5490818.487
473.6482074,5290775.509
474.9532192,5060930.39
476.2689517,4809048.476
477.5955362,4539544.92
478.9331064,4262463.109
480.2817979,3984581.729
481.6417484,3714332.383
483.013098,3461739.949
484.3959889,3230546.352
485.7905654,3026415.98
487.1969743,2853598.576
488.6153648,2715538.214
490.0458884,2615879.375
491.488699,2557667.439
492.943953,2544778.092
494.4118094,2579803.582
495.8924299,2666731.739
497.3859785,2809923.935
498.8926222,3013595.411
500.4125306,3269122.277
501.9458762,3567590.972
503.4928341,3897508.233
505.0535827,4245436.096
506.628303,4596298.488
508.2171792,4933283.236
509.8203986,5236598.19
511.4381515,5484870.736
513.0706316,5681744.696
514.7180356,5828801.497
516.3805639,5931951.122
518.05842,5995975.551
519.751811,6029992.79
521.4609476,6041120.088
523.186044,6041280.75
524.927318,6041256.762
526.6849915,6041072.524
528.45929,6041562.324
530.2504428,6041709.762
532.0586836,6041799.217
533.8842498,6041479.397
535.7273833,6040934.377
537.5883299,6041489.039
539.46734,6041771.454
541.3646685,6041634.082
543.2805745,6041660.42
545.2153222,6041162.264
547.1691801,6041772.875
549.1424219,6041440.718
551.1353259,6041223.501
553.1481756,6041454.735
555.1812597,6041217.289
557.2348721,6041203.71
559.3093121,6041722.897
561.4048845,6041127.991
563.5218996,6041824.603
565.6606737,6041465.28
567.8215287,6041602.756
570.0047927,6041415.84
572.2107997,6041575.033
574.4398902,6041423.582
576.692411,6041745.49
578.9687155,6041314.385
581.2691637,6041751.249
583.5941226,6041350.004
585.943966,6041422.513
588.3190752,6041541.39
590.7198385,6041299.557
593.1466518,6041227.521
595.5999189,6041642.2
598.0800512,6041313.467
703.1812034,6041331.51
704.2110782,6034408.143
705.2443689,6001476.751
706.2810885,5926489.24
707.3212499,5796553.723
708.3648661,5602613.27
709.41195,5340322.042
710.4625144,5008270.95
711.5165721,4607884.872
712.5741357,4156723.901
713.6352181,3699867.615
714.6998317,3275251.729
715.7679891,2913561.197
716.8397028,2638610.145
717.9149852,2463083.337
718.9938487,2392333.251
720.0763055,2424636.553
721.162368,2544390.298
722.2520481,2720876.619
723.3453581,2924573.508
724.4423098,3130931.831
725.5429153,3319571.053
726.6471863,3477423.115
727.7551346,3597095.199
728.866772,3677540.313
729.9821099,3721703.685
731.1011599,3734003.15
732.2239335,3720256.903
733.3504419,3685912.045
734.4806964,3635004.723
735.6147081,3571533.823
736.7524882,3498804.205
737.8940474,3419158.277
739.0393967,3340101.29
740.1885468,3271222.915
741.3415084,3227182.681
742.498292,3227320.218
743.658908,3287084.186
744.8233668,3408783.057
745.9916785,3594192.795
747.1638532,3840141.101
748.3399009,4138010.866
749.5198315,4471896.626
750.7036546,4816154.96
751.89138,5135017.871
753.0830171,5406252.303
754.2785753,5627369.349
755.4780638,5798713.243
756.6814917,5920140.045
757.8888679,5994846.022
759.1002015,6031277.724
760.3155009,6041422.541
761.5347749,6041456.117
762.7580318,6041363.413
763.98528,6041286.076
765.2165276,6041626.161
766.4517825,6041364.246
767.6910527,6041606.193
768.9343459,6041345.548
770.1816697,6041270.789
771.4330314,6041344.877
772.6884383,6041528.46
773.9478975,6041371.111
775.211416,6041768.572
776.4790005,6041688.286
777.7506578,6041419.631
779.0263942,6041108.583
780.3062162,6041236.294
781.5901297,6041015.764
782.8781409,6041687.668
784.1702555,6041695.519
785.4664793,6041842.933
786.7668176,6041017.011
788.0712758,6041178.356
789.3798591,6041251.284
790.6925723,6041311.862
792.0094204,6041393.885
793.3304079,6041290.985
794.6555392,6041472.729
795.9848187,6041567.287
797.3182504,6041163.779
798.6558383,6041579.084
799.9975861,6041014.56
801.3434973,6041133.153
802.6935753,6041374.299
804.0478233,6041627.708
805.4062443,6041267.702
806.7688411,6041746.764
808.1356164,6041317.968
809.5065726,6041197.778
810.881712,6037544.896
812.2610367,6028394.592
813.6445485,6014816.901
815.0322493,5998248.769
816.4241404,5982416.505
817.8202233,5967149.809
819.2204991,5951036.459
820.6249688,5934797.687
822.0336331,5927062.982
823.4464926,5929779.475
824.8635477,5942045.484
826.2847987,5958121.961
827.7102456,5973461.707
829.1398882,5989882.648
830.5737261,6005201.514
832.0117589,6021290.138
833.4539857,6033398.097
834.9004058,6039936.181
836.3510179,6041890.608
837.8058209,6041188.414
839.2648133,6041467.88
840.7279934,6041280.521
842.1953594,6041140.164
843.6669092,6041515.731
845.1426408,6041428.601
846.6225517,6041310.587
848.1066393,6041520.94
849.594901,6041297.198
851.0873338,6041161.849
852.5839347,6041478.9
854.0847003,6041287.716
855.5896273,6041251.32
857.098712,6041367.336
858.6119507,6041499.118
860.1293394,6041329.14
861.650874,6041459.402
863.1765502,6041490.657
864.7063635,6041257.659
866.2403094,6041336.348
867.778383,6041149.03
869.3205794,6041839.851
870.8668935,6041288.739
872.41732,6041183.784
873.9718536,6041532.003
875.5304886,6041386.94
877.0932193,6041328.881
878.6600399,6041058.235
880.2309443,6041762.417
881.8059264,6041203.312
883.3849798,6041418.003
884.9680981,6041429.322
886.5552747,6041397.315
888.1465029,6041060.21
889.7417757,6041264.36
891.3410862,6041602.532
892.9444273,6041232.976
894.5517916,6041555.922
896.1631719,6041299.318
897.7785605,6041622.803
899.3979498,6041630.694
901.0213321,6041283.673
902.6486995,6041479.291
904.280044,6041292.442
905.9153575,6041270.444
907.5546319,6041050.795
909.1978586,6041153.946
910.8450295,6041256.962
912.4961358,6041027.3
914.1511691,6041785.979
915.8101205,6041537.56
917.4729813,6041242.927
919.1397426,6041077.479
920.8103953,6041337.505
922.4849303,6041133.544
924.1633386,6041576.441
925.8456109,6041554.547
927.5317378,6041214.256
929.22171,6041894.412
930.9155179,6041482.449
932.6131521,6041583.984
934.3146028,6041736.248
936.0198606,6041440.082
937.7289155,6041409.849
939.4417579,6041478.336
941.1583779,6041314.984
942.8787656,6041395.101
944.6029109,6041840.893
946.3308041,6041876.076
948.0624349,6040986.728
949.7977933,6041480.452
951.5368692,6041445.861
953.2796523,6041193.79
955.0261327,6041281.114
956.7762999,6041352.118
958.5301437,6041402.99
960.2876539,6041168.234
962.0488201,6041106.011
963.813632,6041381.708
965.5820793,6040956.119
967.3541517,6041766.753
969.1298386,6041809.955
970.9091298,6040680.684
972.6920149,6042111.601
974.4784835,6040792.893
976.2685251,6041733.956
978.0621293,6041590.435
979.8592859,6042133.465
981.6599843,6042873.602
983.4642142,6041213.158
985.2719651,6040836.447
987.0832269,6040873.195
988.897989,6040841.139
990.7162412,6041645.679
992.5379731,6041289.373
994.3631745,6041552.364
996.191835,6031455.916
998.0239445,6001213.588
999.8594926,5942307.909
1001.698469,5846733.867
1003.540864,5707560.285
1005.386668,5522361.606
1007.235869,5285556.154
1009.088458,4995908.392
1010.944426,4669098.888
1012.803762,4326423.246
1014.666456,3984820.096
1016.532498,3657840.052
1018.401878,3356337.299
1020.274588,3091008.393
1022.150616,2866481.986
1024.029953,2687686.673
1025.912591,2545569.554
1027.798518,2433091.423
1029.687726,2340000.999
1031.580205,2259862.481
1033.475945,2183585.106
1035.374938,2107749.908
1037.277175,2028780.954
1039.182645,1942645.315
1041.09134,1850905.154
1043.003251,1752263.837
1044.918368,1648720.013
1046.836683,1541831.013
1048.758188,1434952.266
1050.682872,1328869.947
1052.610728,1226942.399
1054.541747,1132380.16
1056.475921,1044806.021
1058.41324,966826.7752
1060.353697,897870.1805
1062.297282,837964.6889
1064.243989,785584.7954
1066.193809,741325.6278
1068.146734,703964.5907
1070.102755,670864.5047
1072.061865,641802.6148
1074.024056,615294.294
1075.989321,590406.6718
1077.957651,566059.7307
1079.92904,542356.218
1081.90348,518507.8848
1083.880963,493817.5934
1085.861482,469875.9861
1087.84503,446496.0053
1089.8316,422639.9164
1091.821185,400769.2546
1093.813779,379901.8481
1095.809373,360343.3141
1097.807962,341783.0187
1099.809539,325250.5983
1101.814098,310652.1869
1103.821631,297396.6706
1105.832134,285579.0
1107.845599,275461.128
1109.86202,266508.4243
1111.881392,258712.155
1113.903708,251345.8021
1115.928963,245037.4091
1117.95715,238888.3356
1119.988266,232735.3101
1122.022303,226328.7902
1124.059256,219348.7209
1126.09912,212541.5019
1128.14189,205019.6022
1130.187561,197205.0204
1132.236128,188992.3428
1134.287585,180442.536
1136.341929,172198.9754
1138.399153,163901.4336
1140.459254,155589.147
1142.522228,147631.5026
1144.588069,140017.6072
1146.656773,132604.9879
1148.728337,125664.5339
1150.802756,118926.7787
1152.880025,112302.5863
1154.960142,105860.8138
1157.043103,99446.37039
1159.128903,93308.00917
1161.217539,87384.42086
1163.309007,81446.36605
1165.403305,75391.91808
1167.500429,69343.8108
1169.600375,63448.71508
1171.703141,57687.35696
1173.808724,51772.02897
1175.91712,46098.35469
1178.028327,40262.24369
1180.142342,34650.68154
1182.259163,29336.24254
1184.378787,24450.69686
1186.501211,19798.9952
1188.626434,15690.47515
1190.754453,12010.92888
1192.885266,8794.351838
1195.018872,6188.578362
1197.155267,4185.730296
1199.294451,2657.73049
1201.436421,1525.880265
1203.581177,804.9783858
1205.728716,329.3211308
1207.879037,73.28567019
1210.032139,2.511685373
1212.18802,-6.545044265
1214.34668,-0.207667261
1216.508117,4.511687944
1218.67233,-2.192996775
1220.839319,-0.958782011
1223.009083,0.476475187
1225.181621,-0.251531584
1227.356932,-2.942075625
1229.535016,-6.376624289
1231.715873,-1.185503237
1233.899503,-3.183612969
1236.085904,0.122691777
1238.275078,-0.994980995
1240.467024,1.657589037
1242.661741,-2.493778229
