wave,flux
306.2504509,45.0351185607521
306.5604242,70.47085385548044
306.871524,116.19489955548748
307.18375710000004,159.9819836502356
307.4971302,230.00540020071705
307.8116501,307.55099730057964
308.1273236,361.3280759271372
308.4441577,424.03791897288176
308.7621594,501.4199701576849
309.0813356,580.7526172949188
309.4016935,667.1915849067442
309.7232403,764.0814659859483
310.04598300000004,860.4246427739743
310.369929,974.6693984165836
310.6950856,1097.6197646868743
311.0214601,1228.7062568638617
311.34906010000003,1373.4311985348288
311.6778931,1515.8242138560672
312.0079665,1684.3371430817942
312.33928810000003,1843.5325255746047
312.6718655,2025.455896804032
313.00570639999995,2217.670022844265
313.3408189,2411.1487577444072
313.6772106,2623.4299483796867
314.0148896,2840.531640816396
314.3538639,3066.216909272421
314.6941415,3309.554676742669
315.0357308,3550.389629599791
315.37863980000003,3800.627408127832
315.7228769,4069.3168830676022
316.0684504,4331.649824647016
316.4153688,4610.975450528716
316.76364069999994,4894.093018956944
317.1132746,5182.274216650242
317.4642791,5472.50480776997
317.8166631,5765.781150245536
318.1704352,6090.033566000218
318.5256045,6406.946016837932
318.8821799,6729.5549806918725
319.2401704,7055.854910821679
319.5995851,7400.980030911403
319.96043330000003,7728.6615380204175
320.3227243,8084.365494145059
320.6864673,8440.83739689042
321.0516719,8788.087312091599
321.4183476,9149.211848615218
321.786504,9529.34638578226
322.1561508,9895.722904841808
322.5272977,10277.377003001482
322.8999548,10679.78757322838
323.2741319,11105.105049017253
323.649839,11549.31100610788
324.0270864,12040.420026567372
324.40588419999995,12528.289072103848
324.7862428,13068.326024285934
325.16817260000005,13628.14277960795
325.5516841,14219.842274013452
325.9367879,14845.53345579683
326.32349480000005,15465.788990702436
326.7118154,16139.340076494744
327.1017607,16798.449312788165
327.4933418,17485.391635749133
327.88656960000003,18193.93197528561
328.2814555,18924.000834239054
328.6780106,19641.255864453426
329.0762465,20401.88909163309
329.47617460000004,21177.953799912408
329.8778065,21993.257723687235
330.281154,22829.20120966663
330.6862289,23688.228972273268
331.0930432,24615.1229449595
331.5016088,25623.9014926732
331.911938,26775.1728645924
332.32404310000004,28069.626242825307
332.7379364,29512.667119298378
333.1536305,31126.38946409852
333.571138,32944.308221841566
333.9904716,34971.440331878686
334.4116443,37222.59198266502
334.834669,39628.06849155211
335.2595588,42210.92958718095
335.686327,45007.96922331159
336.114987,48052.71965869069
336.5455522,51389.29775496869
336.9780363,55137.77242458875
337.41245310000005,59352.018286565566
337.8488164,64182.28882766253
338.28714019999995,69672.9369568433
338.7274388,75929.75482976099
339.1697264,83111.34931081807
339.6140175,91136.63826603071
340.06032660000005,100220.62774537966
340.5086685,110291.2178024746
340.959058,121469.20650217494
341.4115102,133713.04733061284
341.8660403,147136.21889355275
342.32266339999995,161833.03940955768
342.7813952,177864.02060482182
343.24225110000003,195303.0491155116
343.70524710000007,214212.40583346607
344.17039889999995,234591.0156956276
344.6377228,256562.18948338425
345.1072349,280003.9651486876
345.5789517,304975.50328571466
346.0528897,331271.64490682835
346.5290657,358899.42195769225
347.0074967,387595.7411771861
347.48819960000003,417329.4833686456
347.9711917,447723.7951620653
348.45649060000005,478830.95315669617
348.9441137,510297.5254396828
349.434079,542033.2393716198
349.9264043,573824.3150221832
350.4211078,605685.2971160699
350.9182079,637517.7657899129
351.4177232,669076.6754908965
351.9196722,700029.2989629462
352.42407410000004,730712.3865089067
352.9309478,760750.0134074552
353.4403127,789805.7210639181
353.95218839999995,818018.824920239
354.4665945,844931.9114790398
354.983551,870397.0545673933
355.503078,894361.460562286
356.025196,916673.6277750428
356.5499253,937271.1361426072
357.077287,956071.7184413776
357.6073018,972978.5470777728
358.1399912,988356.9885601636
358.6753765,1001946.6770102576
359.2134795,1013937.234848536
359.754322,1024351.8615520012
360.2979263,1032787.171803968
360.8443147,1039590.4966235124
361.3935098,1044533.1825197196
361.9455346,1047294.7554807352
362.5004122,1048111.717680996
363.058166,1046821.7843469984
363.61881960000005,1043688.1496136064
364.1823969,1038906.5120181508
364.7489221,1033265.4384753978
365.3184196,1027510.5422613916
365.8909141,1022400.076533935
366.4664305,1018211.0069736644
367.0449943,1016336.1395888572
367.6266307,1016951.3406420216
368.2113658,1020463.8703691117
368.7992255,1026809.1793254904
369.3902363,1036113.0810666436
369.9844249,1047636.8067762564
370.5818182,1060616.6751839314
371.1824436,1074445.779643871
371.7863286000001,1087965.014469806
372.3935012,1100458.3668129048
373.0039896,1111465.095677413
373.6178223,1120915.3889064735
374.2350283,1128813.2887557675
374.8556368,1135861.479096582
375.4796772,1143836.0105625344
376.1071796,1154742.6428853697
376.7381741,1170407.3271311852
377.3726913,1194594.1482621264
378.0107622,1230253.856733174
378.652418,1280871.6290216164
379.2976904,1348977.8835208858
379.9466115,1437593.3602246796
380.5992136,1547670.3519307857
381.2555296,1679025.6710758738
381.9155926,1829672.7217531048
382.5794362,1996785.8675409723
383.2470943,2174781.937820273
383.9186014,2356600.527082648
384.5939922,2535463.269191789
385.2733019,2702495.4062587637
385.9565661,2851292.3435046086
386.6438209,2975564.157081552
387.3351027,3071800.289180689
388.0304484,3139316.9444321985
388.7298955,3181362.7059202967
389.4334817,3202122.7353277886
390.1412452,3208249.473156467
390.853225,3209200.993060755
391.56946,3214818.6221571187
392.2899901,3231178.251379683
393.0148555,3261338.756602495
393.7440968,3306352.4090818586
394.4777551,3362100.739012003
395.2158722,3425142.160764213
395.9584903,3490720.8228962123
396.7056521,3548721.7025052006
397.457401,3590474.4279411286
398.2137806,3614519.863146615
398.9748353,3622287.472258057
399.7406101,3617463.545848461
400.5111505,3605666.7953234254
401.2865024,3594760.811638104
402.0667126,3590822.62593835
402.8518283,3602092.545412516
403.6418973,3634338.960539668
404.436968,3689092.8056477336
405.2370896,3763903.9230638114
406.0423117,3853713.6526455474
406.8526847,3952645.834569218
407.66825960000006,4052196.8699284913
408.4890879,4143934.521883581
409.3152221,4221425.696775248
410.1467152,4278711.106970158
410.9836208,4312007.622757242
411.8259934,4320124.9446989
412.673888,4305048.099055003
413.5273605,4270277.786447322
414.38646760000006,4220684.724398287
415.2512664,4163572.651084907
416.1218152,4105904.453674916
416.9981727,4054979.707339701
417.8803987,4017984.979782602
418.7685535,4002841.179118515
419.6626985,4015869.434275144
420.5628957,4064770.90274568
421.4692081,4154856.043240391
422.3816994,4284116.872182227
423.3004343,4447622.394012693
424.2254783,4638528.546174569
425.1568978,4849717.199948506
426.0947602,5070288.747212129
427.0391337,5288426.507089716
427.9900874,5489004.5853299815
428.9476917,5655625.216549475
429.9120175,5789070.815588164
430.8831369,5891169.7991420375
431.8611232,5962721.198783737
432.8460504,6008526.892189343
433.8379937,6033178.241175279
434.8370293,6041363.625761707
435.8432345,6041023.672093608
436.8566878,6041557.4723158125
437.8774686,6041337.281360459
438.9056575,6041147.742892497
439.9413364,6039824.0612716125
440.9845882,6037226.715595941
442.035497,6031810.66094622
443.0941482,6026229.258298234
444.1606283,6020355.908638042
445.23502520000005,6014011.87481483
446.317428,6007789.723265944
447.407927,6002362.413904566
448.5066141,5998288.633923429
449.6135822,5998545.27399377
450.7289258,6001616.505207802
451.85274060000006,6007101.740848552
452.9851239,6013286.70156452
454.1261744,6019527.03512444
455.2759921,6025309.183141668
456.4346788,6031776.374450036
457.6023374,6036562.761575768
458.7790727,6039323.977515285
459.9649909,6041511.338369566
461.1601998,6041371.049316447
462.364809,6041638.505241223
463.5789295,6041192.99302117
464.8026741000001,6041088.774932562
466.0361575,6041242.299571567
467.2794956999999,6041408.453029445
468.5328070000001,6041504.113988548
469.7962111000001,6040982.380479799
471.0698299,6041678.068899189
472.3537868,6041527.189257193
473.6482074,6041288.653432506
474.9532192,6041378.41895619
476.2689517,6041429.970539575
477.5955362,6041074.584413812
478.93310639999993,6041157.757852961
480.2817979,6041841.081583942
481.6417484,6041701.339686423
483.01309800000007,6041405.452022809
484.3959889,6041337.016917853
485.7905654,6041082.767889685
487.1969743,6041174.881498433
488.6153648,6041342.747967092
490.0458884,6041480.970071622
491.488699,6041656.816068216
492.943953,6041621.822279752
494.4118094,6041618.224208675
495.8924299,6041291.0214914335
497.3859785,6041407.803170176
498.8926222,6041260.7438147785
500.4125306,6041106.431524341
501.9458762,6041373.789127752
503.4928341,6041380.622975303
505.0535827,6040903.035752959
506.628303,6041430.863267638
508.2171791999999,6041615.117220488
509.8203986,6041715.359381426
511.4381515,6041203.61661691
513.0706316000001,6041251.679528503
514.7180356,6041140.00968162
516.3805639,6041100.691982019
518.0584200000001,6041836.539480496
519.7518110000001,6041455.1055223625
521.4609475999999,6041755.23364646
523.186044,6041311.025712382
524.927318,6041290.212970576
526.6849915,6041183.783743031
528.45929,6041409.766798628
530.2504428000001,6041396.114683656
532.0586836,6041319.786430513
533.8842498,6041036.762592816
535.7273833,6041747.502171947
537.5883299,6041195.5897038365
539.46734,6041689.891242673
541.3646685,6041444.835755709
543.2805745000001,6041427.44761093
545.2153222000001,6041281.96908337
547.1691801,6041092.280135566
549.1424218999999,6041767.17532342
551.1353259,6041682.6560296025
553.1481756000001,6041374.782573889
555.1812597,6041455.078419627
557.2348721,6041594.501812182
559.3093121,6041177.38677938
561.4048845,6041249.712760185
563.5218996,6041226.502812252
565.6606737000001,6041277.521195899
567.8215287,6041272.560069868
570.0047927,6041388.531012914
572.2107997,6041155.633740078
574.4398902,6041564.098345791
576.692411,6041095.709134349
578.9687155,6041460.33542271
581.2691637,6041262.410369428
583.5941226,6041459.112823169
585.943966,6041075.964205924
588.3190752,6041501.625258427
590.7198384999999,6041191.789735767
593.1466518,6041251.294994744
595.5999188999999,6041035.306822613
598.0800512,6041358.2702813735
600.5874682,6041779.75676423
603.1225977000001,6041319.0018482525
605.6858758999999,6041401.557886703
608.2777476,6041866.475916151
610.8986664,6041001.158239584
613.549095,6041606.187502602
616.2295054,6041282.888123409
618.940379,6040699.038812933
621.6822068,6040916.334335734
624.4554901,6042187.081581415
627.2607402000001,6042377.405465755
630.0984786,6040887.874915139
632.9692378999999,6042227.08842226
635.8735614,6042597.767454443
638.8120038,6043137.321232019
641.7851312999999,6040775.624037505
644.7935217999999,6041647.861151655
647.8377654,6042191.562497485
650.9184646000001,6041952.14767156
654.0362346,6040369.683491913
657.1917038,6039496.624622817
660.3855139,6041794.096417042
663.6183202999999,6040622.164183768
666.8907926,6041160.790233629
670.2036149,6042620.964497778
673.557486,6040897.261080619
676.9531202000001,6041103.624299748
680.3912472999999,6039985.755235918
683.8726131,6030701.009156725
687.3979803,6013805.363879526
690.9681281000001,6001019.462435205
694.5838534,5983426.5966747925
698.2459709,5964037.810424819
701.9553139,5933144.511549423
705.7127343,5892325.858508932
709.5191037000001,5841190.74936267
713.3753136,5766023.45913473
717.282276,5658497.524517595
721.2409241,5508686.226774657
725.2522127999999,5304558.902073569
729.3171195,5037398.387500909
733.4366444,4720614.749560622
737.6118116,4357128.685535435
741.8436694000001,3956040.030105421
746.1332914,3539977.528701544
750.4817767999999,3124983.1877200766
754.8902515999999,2736776.206456512
759.3598692,2381708.586926008
763.8918112000001,2081472.500496604
768.4872882999999,1828586.6955634644
773.1475413,1626879.790344953
777.8738417999999,1473038.6864379256
782.6674933999999,1345860.5137632384
787.5298327,1245368.6614319514
792.4622299,1154204.7257117725
797.4660904,1066545.1044147708
802.5428559,977026.2910758804
807.694005,888477.6188315316
812.9210552000001,797949.6863198053
818.2255633999999,703984.7070101276
823.6091279,616425.5285167616
829.0733892000001,535785.8521884442
834.6200316000001,466799.4107761789
840.2507849,406916.6296496058
845.9674256000001,358856.5207423968
851.7717787,319668.4147341625
857.6657193,290294.50689188467
863.6511742999999,268927.0957792168
869.7301242999998,253811.0396070949
875.9046055,241517.18244061005
882.1767113,232275.42408959343
888.548595,225365.78920476467
895.0224714,221086.43001182
901.6006193,218118.21574992847
908.2853836000002,216024.52553402487
915.0791782,214257.87923706308
921.9844879,212824.13193497725
929.0038716,210880.64843229245
936.1399648,208175.90517478128
943.3954827,204401.3123709728
950.7732231,199677.80335401293
958.2760697,193660.58269981743
965.9069952,186449.8910359453
973.6690651,178484.46949774388
981.5654413,169938.15636577774
989.5993859,160933.77992899006
997.774265,151789.73692071298
1006.093553,142915.33026066108
1014.560839,134609.91201148686
1023.179826,127131.27972856394
1031.954343,120626.53488863294
1040.8883449999998,114942.82866745123
1049.98592,110459.25118691212
1059.251295,106809.73035762846
1068.688841,103854.22270998426
1078.303081,101507.78043241528
1088.098695,99505.0569068882
1098.0805269999998,97739.0161641821
1108.253594,95953.98965373333
1118.623093,94288.05518160413
1129.194406,92584.16967754476
1139.973115,90989.08669475556
1150.965006,89142.17654999837
1161.217539,87384.42086161932
1162.1760800000002,87418.49566541043
1163.309007,81446.36604983735
1165.403305,75391.91808117897
1167.500429,69343.81079705039
1169.600375,63448.71508168357
1171.703141,57687.35696417806
1173.808724,51772.028966136575
1175.9171199999998,46098.354691574095
1178.028327,40262.24369235116
1180.142342,34650.68153993727
1182.2591630000002,29336.24254210216
1184.378787,24450.69686183541
1186.501211,19798.995204551684
1188.626434,15690.475154136702
1190.754453,12010.928876102496
1192.885266,8794.351837598557
1195.018872,6188.578361664267
1197.155267,4185.7302964075625
1199.294451,2657.7304899958144
1201.436421,1525.880264569768
1203.581177,804.9783857899585
1205.728716,329.32113077714746
1207.879037,73.28567018869207
1210.032139,2.5116853732356166
1212.1880199999998,-6.545044264506767
1214.34668,-0.2076672610613938
1216.508117,4.5116879438961455
1218.67233,-2.1929967754893065
1220.839319,-0.9587820112067558
1223.009083,0.4764751871373476
1225.1816210000002,-0.2515315835732376
1227.356932,-2.942075625240565
1229.535016,-6.376624288917313
1231.715873,-1.1855032370778793
1233.899503,-3.183612969376415
1236.0859039999998,0.1226917768037316
1238.275078,-0.9949809951901354
1240.467024,1.6575890370992097
1242.661741,-2.4937782293025768
