wave,flux
306.2504509,59.59505505818635
306.5604242,97.18423665100464
306.871524,151.1568223920178
307.18375710000004,213.95863045531289
307.4971302,301.71723992299894
307.8116501,399.0992542501795
308.1273236,475.1867196715375
308.4441577,556.6053491758959
308.7621594,647.7583078471873
309.0813356,751.7162460294926
309.4016935,864.0694863730188
309.7232403,994.1070390788916
310.04598300000004,1126.7767570885355
310.369929,1275.6828138751084
310.6950856,1430.4817180202883
311.0214601,1600.2967242523116
311.34906010000003,1781.6672514747645
311.6778931,1975.4924310753356
312.0079665,2181.0183648359907
312.33928810000003,2410.0438281806496
312.6718655,2632.3329927270747
313.00570639999995,2881.1489662920094
313.3408189,3140.995399129764
313.6772106,3411.530257121859
314.0148896,3705.096239630722
314.3538639,3994.030866314127
314.6941415,4310.145322728344
315.0357308,4638.976457895101
315.37863980000003,4968.780708983455
315.7228769,5309.54204465099
316.0684504,5675.375956453648
316.4153688,6033.03491161582
316.76364069999994,6420.300286258176
317.1132746,6808.040406934203
317.4642791,7205.671702796965
317.8166631,7610.310918542144
318.1704352,8027.127506813109
318.5256045,8447.457251863334
318.8821799,8879.6691406018
319.2401704,9328.729741975432
319.5995851,9760.798274010507
319.96043330000003,10231.621307951826
320.3227243,10685.48973828382
320.6864673,11143.120305578594
321.0516719,11621.513588063312
321.4183476,12089.470495819944
321.786504,12581.564380351978
322.1561508,13074.298073920196
322.5272977,13609.147008727712
322.8999548,14218.751311965518
323.2741319,14866.884299519992
323.649839,15615.102413584696
324.0270864,16446.26937517242
324.40588419999995,17353.21343689235
324.7862428,18345.745571274125
325.16817260000005,19413.9106866827
325.5516841,20552.43089001292
325.9367879,21664.33295995071
326.32349480000005,22784.65417940289
326.7118154,23866.458336139225
327.1017607,24940.498840102628
327.4933418,25962.46517325039
327.88656960000003,27003.399871353387
328.2814555,28001.05393927088
328.6780106,29009.090134693863
329.0762465,30046.837084150506
329.47617460000004,31097.97779594738
329.8778065,32200.870506131498
330.281154,33358.638046862405
330.6862289,34561.775329173906
331.0930432,35851.79121475346
331.5016088,37267.9920426001
331.911938,38827.1459949873
332.32404310000004,40539.216987093234
332.7379364,42430.06704857802
333.1536305,44535.454838946986
333.571138,46841.83878224209
333.9904716,49428.22684275924
334.4116443,52207.72811456669
334.834669,55255.68366355031
335.2595588,58504.90460169447
335.686327,62038.11439190923
336.114987,65927.5320419746
336.5455522,70228.19532947741
336.9780363,75110.78432211635
337.41245310000005,80607.03473056888
337.8488164,86933.36861939158
338.28714019999995,94146.49013659236
338.7274388,102380.0506598264
339.1697264,111700.74150634614
339.6140175,122237.771405613
340.06032660000005,134103.07526240658
340.5086685,147243.41631960374
340.959058,161832.87179034017
341.4115102,177881.28648463017
341.8660403,195503.35900311664
342.32266339999995,214911.52583335707
342.7813952,236031.5282486197
343.24225110000003,259049.4439457084
343.70524710000007,284001.40213734604
344.17039889999995,310988.3731456579
344.6377228,340064.9441864239
345.1072349,371011.3863104222
345.5789517,403906.6089641382
346.0528897,438581.6965565186
346.5290657,474807.35644871154
347.0074967,512595.4796987631
347.48819960000003,551459.3454086111
347.9711917,591385.5397882946
348.45649060000005,632080.7681536921
348.9441137,673175.2970038201
349.434079,714575.8982825619
349.9264043,756196.251601013
350.4211078,797854.506432637
350.9182079,839487.505155815
351.4177232,880657.0384477341
351.9196722,921675.179964822
352.42407410000004,961905.1778482032
352.9309478,1001680.197224463
353.4403127,1040498.9251062906
353.95218839999995,1078198.5546578928
354.4665945,1114719.45936683
354.983551,1149940.802218322
355.503078,1183309.5567970432
356.025196,1215043.1733880898
356.5499253,1244660.2302674605
357.077287,1272367.9241963178
357.6073018,1298030.582193273
358.1399912,1321748.10539793
358.6753765,1343040.994391313
359.2134795,1362071.652424755
359.754322,1378970.180844686
360.2979263,1393233.2606201752
360.8443147,1405658.7561524252
361.3935098,1415711.6943654276
361.9455346,1423827.6938505997
362.5004122,1431011.4633293776
363.058166,1437529.9124363326
363.61881960000005,1445653.1130024153
364.1823969,1456537.076074875
364.7489221,1471958.2655932878
365.3184196,1494154.350871177
365.8909141,1525088.26609656
366.4664305,1566182.0734144845
367.0449943,1618233.723878858
367.6266307,1681302.608075976
368.2113658,1753984.1925844448
368.7992255,1833716.902800689
369.3902363,1916902.865510176
369.9844249,1998595.564684456
370.5818182,2074303.479701358
371.1824436,2138681.71517109
371.7863286000001,2187237.897247088
372.3935012,2216145.2464420125
373.0039896,2224358.551757717
373.6178223,2210823.5753710056
374.2350283,2178034.4853267265
374.8556368,2129312.6976981284
375.4796772,2070187.8094084216
376.1071796,2007200.9227108909
376.7381741,1947315.239718949
377.3726913,1896958.739129515
378.0107622,1862963.566290572
378.652418,1851374.0541855143
379.2976904,1865919.5998354985
379.9466115,1908842.205186674
380.5992136,1981354.7894150072
381.2555296,2081427.7317699983
381.9155926,2206123.0390348467
382.5794362,2350069.97874924
383.2470943,2506341.177921628
383.9186014,2668271.241207019
384.5939922,2826590.090196572
385.2733019,2973911.026360252
385.9565661,3103221.057948835
386.6438209,3209939.9178867936
387.3351027,3291648.360760691
388.0304484,3348418.7278894214
388.7298955,3384016.7994004777
389.4334817,3403577.461402752
390.1412452,3413279.496524185
390.853225,3421893.44559774
391.56946,3436349.490125827
392.2899901,3460920.4676685245
393.0148555,3497450.460312935
393.7440968,3544480.64708924
394.4777551,3597750.1768830656
395.2158722,3652550.2122061225
395.9584903,3703569.406002738
396.7056521,3742144.236832635
397.457401,3764320.109913869
398.2137806,3769273.2573266136
398.9748353,3760485.691919536
399.7406101,3741883.638810732
400.5111505,3721378.8706219983
401.2865024,3706080.534601711
402.0667126,3702712.032577728
402.8518283,3718954.07711278
403.6418973,3757511.3547990937
404.436968,3818379.651152248
405.2370896,3898186.689260204
406.0423117,3990167.206564016
406.8526847,4086366.850844465
407.66825960000006,4176904.5279373694
408.4890879,4254086.373837346
409.3152221,4309556.669377144
410.1467152,4338273.479171392
410.9836208,4337188.487061494
411.8259934,4306858.601030843
412.673888,4250141.2097082585
413.5273605,4171850.042153856
414.38646760000006,4080403.8723571417
415.2512664,3982741.31999332
416.1218152,3888381.9642543183
416.9981727,3805567.188943724
417.8803987,3742354.465439512
418.7685535,3706552.3523469632
419.6626985,3705555.446772792
420.5628957,3746410.451219401
421.4692081,3835543.963878584
422.3816994,3971513.3079542713
423.3004343,4149556.9338339977
424.2254783,4361424.236698372
425.1568978,4598801.958095233
426.0947602,4850532.098409887
427.0391337,5102930.718821183
427.9900874,5339477.318763803
428.9476917,5541761.00111129
429.9120175,5706845.967225717
430.8831369,5834239.246498995
431.8611232,5926995.203057575
432.8460504,5988214.280949132
433.8379937,6023302.117153451
434.8370293,6038613.403454652
435.8432345,6038009.4032019
436.8566878,6028469.125785357
437.8774686,6010290.193277838
438.9056575,5982533.2427419815
439.9413364,5943562.571905652
440.9845882,5893789.556161055
442.035497,5830567.432585693
443.0941482,5754458.159318169
444.1606283,5670250.633574974
445.23502520000005,5584207.596439545
446.317428,5500233.602500295
447.407927,5420677.524405037
448.5066141,5347205.68496109
449.6135822,5283395.697741514
450.7289258,5233095.323508808
451.85274060000006,5200692.6376181785
452.9851239,5188594.569218576
454.1261744,5199250.7107622335
455.2759921,5231660.525496028
456.4346788,5284615.629047295
457.6023374,5356523.00380545
458.7790727,5444942.861851712
459.9649909,5544344.67379748
461.1601998,5648483.974673665
462.364809,5748141.038532372
463.5789295,5832990.494085284
464.8026741000001,5902619.181041761
466.0361575,5957207.178390344
467.2794956999999,5996996.816349682
468.5328070000001,6022850.517312765
469.7962111000001,6036569.080276426
471.0698299,6041340.761186708
472.3537868,6041548.114183707
473.6482074,6041100.429662739
474.9532192,6041710.353889514
476.2689517,6041211.434265901
477.5955362,6041989.613913418
478.93310639999993,6041520.668824363
480.2817979,6041067.396918022
481.6417484,6041639.103613956
483.01309800000007,6041069.407172837
484.3959889,6041211.10372603
485.7905654,6041778.467441832
487.1969743,6041398.574755529
488.6153648,6040953.220576654
490.0458884,6041656.272294902
491.488699,6041469.538068889
492.943953,6041313.371062634
494.4118094,6041530.7784814825
495.8924299,6041559.099107105
497.3859785,6041030.610383924
498.8926222,6041302.726038579
500.4125306,6041459.650939832
501.9458762,6041214.579978777
503.4928341,6041908.292623029
505.0535827,6041612.055803274
506.628303,6041073.213097996
508.2171791999999,6041265.783067388
509.8203986,6040918.631970513
511.4381515,6041556.672379241
513.0706316000001,6041424.194159014
514.7180356,6040857.103021616
516.3805639,6041393.495214396
518.0584200000001,6041286.66766965
519.7518110000001,6041012.204600767
521.4609475999999,6041695.423346167
523.186044,6041512.422025518
524.927318,6041069.609122999
526.6849915,6041221.2279526265
528.45929,6041221.131693035
530.2504428000001,6041313.37015432
532.0586836,6041526.291741255
533.8842498,6041383.983743263
535.7273833,6041586.272258301
537.5883299,6041335.725915362
539.46734,6041507.039434442
541.3646685,6041736.182275409
543.2805745000001,6040875.5802158825
545.2153222000001,6041344.374155805
547.1691801,6041699.397807378
549.1424218999999,6041189.335768555
551.1353259,6041691.483129599
553.1481756000001,6041424.992366895
555.1812597,6041126.148161503
557.2348721,6041544.185582767
559.3093121,6041570.12760102
561.4048845,6041334.605204533
563.5218996,6041623.140102441
565.6606737000001,6041241.018553488
567.8215287,6041035.138874932
570.0047927,6041211.732890543
572.2107997,6041606.447356053
574.4398902,6041331.822285405
576.692411,6041331.364061088
578.9687155,6041455.047598493
581.2691637,6041363.275742503
583.5941226,6041281.604524985
585.943966,6041774.061358352
588.3190752,6041368.7570965765
590.7198384999999,6041332.549730388
593.1466518,6041355.19834872
595.5999188999999,6040960.911580153
598.0800512,6041520.093412229
600.5874682,6041249.162525482
603.1225977000001,6041384.8871280365
605.6858758999999,6041512.519497288
608.2777476,6041385.791117135
610.8986664,6041073.736766839
613.549095,6041033.079681272
616.2295054,6041310.022970856
618.940379,6041028.879244302
621.6822068,6039678.510036808
624.4554901,6041350.530443156
703.1812034,6041331.510317459
704.2110782000001,6034408.143058947
705.2443688999999,6001476.751476896
706.2810885,5926489.240218572
707.3212499,5796553.722529887
708.3648661000001,5602613.269924725
709.41195,5340322.041612587
710.4625143999999,5008270.949836734
711.5165721,4607884.872153019
712.5741357,4156723.900602465
713.6352181,3699867.615380514
714.6998317000001,3275251.7292207074
715.7679891,2913561.1965372404
716.8397027999999,2638610.145425174
717.9149852,2463083.3367133485
718.9938487000001,2392333.2506083185
720.0763055,2424636.5527081685
721.162368,2544390.2984507373
722.2520481,2720876.6189036896
723.3453581,2924573.507941234
724.4423098,3130931.83119498
725.5429153,3319571.053113372
726.6471863,3477423.115269578
727.7551346,3597095.198525487
728.866772,3677540.313457483
729.9821099,3721703.684980215
731.1011599,3734003.150441658
732.2239335,3720256.9032198233
733.3504419,3685912.0449722833
734.4806963999999,3635004.723145312
735.6147081,3571533.822726118
736.7524882,3498804.204572731
737.8940474,3419158.277133293
739.0393967,3340101.289983452
740.1885467999999,3271222.9146600426
741.3415084,3227182.6808242938
742.498292,3227320.2178914286
743.658908,3287084.185999661
744.8233667999999,3408783.056766678
745.9916785,3594192.794851364
747.1638532000001,3840141.101026168
748.3399009,4138010.865734168
749.5198315,4471896.625601148
750.7036546,4816154.960030578
751.89138,5135017.870853708
753.0830171,5406252.302718901
754.2785752999999,5627369.349020484
755.4780638,5798713.242807322
756.6814917,5920140.045404918
757.8888678999999,5994846.022156414
759.1002014999999,6031277.724336399
760.3155009,6041422.540877156
761.5347749,6041456.116721397
762.7580318,6041363.412736865
763.98528,6041286.075991209
765.2165276000001,6041626.161114726
766.4517825,6041364.2464734325
767.6910527000001,6041606.193474527
768.9343458999999,6041345.548343788
770.1816697,6041270.78928163
771.4330313999999,6041344.87657087
772.6884382999999,6041528.459953505
773.9478975,6041371.111006471
775.211416,6041768.571698408
776.4790005,6041688.286063748
777.7506578,6041419.630934094
779.0263942,6041108.582573384
780.3062162,6041236.293611111
781.5901297,6041015.763583353
782.8781409,6041687.667570801
784.1702554999999,6041695.519285145
785.4664793,6041842.932652517
786.7668176,6041017.010751676
788.0712758,6041178.356482808
789.3798591,6041251.283727039
790.6925722999999,6041311.861557088
792.0094204,6041393.884977872
793.3304079,6041290.985439526
794.6555392000001,6041472.729320486
795.9848187000001,6041567.287435471
797.3182504,6041163.7793804975
798.6558382999999,6041579.083554664
799.9975861,6041014.559745517
801.3434973,6041133.152911719
802.6935752999999,6041374.299341513
804.0478232999999,6041627.707916914
805.4062443,6041267.702490067
806.7688411,6041746.7636660775
808.1356164,6041317.968144717
809.5065726,6041197.777924172
810.881712,6037544.896481733
812.2610367000001,6028394.59190735
813.6445485,6014816.900926956
815.0322493,5998248.768784817
816.4241404,5982416.504881337
817.8202233,5967149.80877832
819.2204991,5951036.45936847
820.6249687999999,5934797.686519957
822.0336331,5927062.981777205
823.4464925999999,5929779.4752374
824.8635477000001,5942045.484309628
826.2847987,5958121.960509658
827.7102456,5973461.706609474
829.1398882,5989882.647950089
830.5737261,6005201.513707697
832.0117589,6021290.13786632
833.4539857000001,6033398.097096953
834.9004057999999,6039936.180928725
836.3510179,6041890.608300451
837.8058209,6041188.413779288
839.2648132999999,6041467.879739725
840.7279934000001,6041280.521402918
842.1953594,6041140.164031638
843.6669092,6041515.730522771
845.1426408,6041428.60068933
846.6225517000001,6041310.586533397
848.1066392999999,6041520.939658328
849.5949009999999,6041297.197510527
851.0873337999999,6041161.849240896
852.5839347000001,6041478.900197905
854.0847002999999,6041287.716090117
855.5896273,6041251.319928652
857.0987119999999,6041367.33564489
858.6119507000001,6041499.11833986
860.1293393999999,6041329.139505252
861.650874,6041459.402341343
863.1765502000001,6041490.657432567
864.7063635,6041257.659023435
866.2403094,6041336.348469251
867.778383,6041149.03002128
869.3205793999999,6041839.850766764
870.8668935000001,6041288.739347925
872.4173199999999,6041183.783607182
873.9718536,6041532.002847607
875.5304886,6041386.940272795
877.0932193,6041328.881488076
878.6600399,6041058.234669288
880.2309443,6041762.417351128
881.8059264000001,6041203.312318431
883.3849798,6041418.003360568
884.9680981,6041429.322478843
886.5552747000002,6041397.31540148
888.1465029,6041060.210288429
889.7417757000001,6041264.359633659
891.3410862,6041602.531741967
892.9444273,6041232.975990633
894.5517916000001,6041555.92160339
896.1631719000001,6041299.317566822
897.7785605,6041622.802593856
899.3979498,6041630.69443692
901.0213321,6041283.673450068
902.6486995,6041479.290664049
904.280044,6041292.442164497
905.9153575,6041270.44394296
907.5546319,6041050.794765208
909.1978586,6041153.945523327
910.8450295,6041256.961517931
912.4961358,6041027.299609391
914.1511691,6041785.9786400935
915.8101205,6041537.5595049225
917.4729813,6041242.926993521
919.1397426,6041077.478600496
920.8103953,6041337.505155128
922.4849303,6041133.543975286
924.1633386,6041576.44108139
925.8456109,6041554.54729999
927.5317378,6041214.256195001
929.22171,6041894.412019456
930.9155179,6041482.448954918
932.6131521,6041583.984047699
934.3146028,6041736.247791188
936.0198606,6041440.082229637
937.7289155,6041409.849225984
939.4417579,6041478.336114589
941.1583779,6041314.983901771
942.8787656,6041395.1008411925
944.6029109,6041840.892728483
946.3308041,6041876.075752604
948.0624349,6040986.72776355
949.7977933,6041480.451556994
951.5368692,6041445.860766117
953.2796523,6041193.790342455
955.0261327,6041281.1139344815
956.7762999,6041352.118376207
958.5301437,6041402.989568533
960.2876539,6041168.233986389
962.0488201,6041106.01089034
963.813632,6041381.707818882
965.5820793,6040956.1186445085
967.3541517,6041766.752679353
969.1298386,6041809.955394045
970.9091298,6040680.684005692
972.6920149,6042111.601190719
974.4784835,6040792.893440379
976.2685251,6041733.956126005
978.0621293,6041590.435390086
979.8592859,6042133.465484602
981.6599843,6042873.602297604
983.4642142,6041213.157967523
985.2719651,6040836.4467942575
987.0832269,6040873.194806333
988.897989,6040841.138829352
990.7162412,6041645.679377751
992.5379731,6041289.37266297
994.3631745,6041552.363521826
996.191835,6031455.916302208
998.0239445,6001213.5884593325
999.8594926,5942307.909043522
1001.698469,5846733.8667527065
1003.540864,5707560.284899212
1005.386668,5522361.6056684535
1007.235869,5285556.154156412
1009.088458,4995908.391635535
1010.944426,4669098.888067725
1012.803762,4326423.245774676
1014.666456,3984820.096130318
1016.532498,3657840.0516418833
1018.401878,3356337.299297148
1020.274588,3091008.3925567083
1022.150616,2866481.986331553
1024.029953,2687686.6733198487
1025.912591,2545569.553534901
1027.798518,2433091.422565682
1029.687726,2340000.9985964247
1031.580205,2259862.4810585207
1033.475945,2183585.1058121133
1035.3749380000002,2107749.907593725
1037.277175,2028780.953520708
1039.182645,1942645.3150049704
1041.09134,1850905.153987476
1043.003251,1752263.8371960246
1044.918368,1648720.01310298
1046.836683,1541831.0127302962
1048.758188,1434952.265840348
1050.682872,1328869.946519811
1052.610728,1226942.3993354845
1054.541747,1132380.159601252
1056.4759210000002,1044806.0206476344
1058.41324,966826.7752076852
1060.353697,897870.1805388415
1062.297282,837964.6889393901
1064.243989,785584.795399283
1066.193809,741325.6278458548
1068.146734,703964.5906869301
1070.102755,670864.5047357813
1072.061865,641802.6148313585
1074.024056,615294.2940189933
1075.989321,590406.671789814
1077.957651,566059.7307356157
1079.92904,542356.2179932783
1081.9034800000002,518507.8847868306
1083.880963,493817.5933955719
1085.861482,469875.9860790502
1087.8450300000002,446496.0053174853
1089.8316,422639.9163826367
1091.821185,400769.2545503244
1093.8137789999998,379901.84814366815
1095.809373,360343.3140932901
1097.807962,341783.01874921826
1099.809539,325250.5982988232
1101.814098,310652.18691938143
1103.821631,297396.6705832861
1105.832134,285578.9999922994
1107.845599,275461.12799395283
1109.86202,266508.4243037332
1111.881392,258712.15499741075
1113.903708,251345.80207787163
1115.928963,245037.40914595497
1117.95715,238888.33559601448
1119.988266,232735.31006177596
1122.022303,226328.7901872597
1124.059256,219348.72089459345
1126.09912,212541.5018875947
1128.14189,205019.6022342709
1130.187561,197205.0203854668
1132.236128,188992.34282592204
1134.287585,180442.53598648915
1136.341929,172198.97541633062
1138.3991529999998,163901.43355782225
1140.459254,155589.14701926356
1142.522228,147631.50257439114
1144.588069,140017.6072228972
1146.6567730000002,132604.9878781259
1148.728337,125664.53389932936
1150.802756,118926.77871582856
1152.880025,112302.5863227754
1154.960142,105860.81381300966
1157.043103,99446.37039489944
1159.128903,93308.00917405692
1161.217539,87384.42086161932
1163.309007,81446.36604983735
1165.403305,75391.91808117897
1167.500429,69343.81079705039
1169.600375,63448.71508168357
1171.703141,57687.35696417806
