wave,flux
306.2504509,59.51291373776595
306.5604242,98.6536177817534
306.871524,149.22271570334777
307.18375710000004,226.786954184947
307.4971302,310.9401765997772
307.8116501,422.747344823506
308.1273236,499.6507627490788
308.4441577,581.5806495296217
308.7621594,679.2711202224123
309.0813356,791.4895445834678
309.4016935,913.4886195092524
309.7232403,1044.9202461663651
310.04598300000004,1187.7434483905738
310.369929,1342.523673004214
310.6950856,1511.0618351510009
311.0214601,1690.82988537008
311.34906010000003,1880.9718581781672
311.6778931,2083.0526805969275
312.0079665,2304.527750837417
312.33928810000003,2539.9861175189653
312.6718655,2784.343425910159
313.00570639999995,3037.083063814613
313.3408189,3315.0476196641
313.6772106,3600.5740649825025
314.0148896,3905.109430402177
314.3538639,4217.488540807352
314.6941415,4543.826153132485
315.0357308,4882.370658069747
315.37863980000003,5240.925554123111
315.7228769,5604.083037498011
316.0684504,5971.707891246972
316.4153688,6364.67530134584
316.76364069999994,6768.757221025424
317.1132746,7177.411499550522
317.4642791,7599.566170413935
317.8166631,8032.294732250067
318.1704352,8471.299380271492
318.5256045,8912.584068762335
318.8821799,9380.1578454175
319.2401704,9834.040649283876
319.5995851,10313.951009606231
319.96043330000003,10783.444139814896
320.3227243,11268.081907240612
320.6864673,11761.37061983343
321.0516719,12260.600893034314
321.4183476,12767.367940663364
321.786504,13271.805961385193
322.1561508,13809.2608460408
322.5272977,14388.844442526435
322.8999548,15015.139978036175
323.2741319,15713.854416454937
323.649839,16457.502434751146
324.0270864,17301.104495569227
324.40588419999995,18197.887448574027
324.7862428,19160.359708570075
325.16817260000005,20211.46906334796
325.5516841,21264.677458222257
325.9367879,22351.428611537587
326.32349480000005,23391.349182470087
326.7118154,24434.552793349787
327.1017607,25463.93641788513
327.4933418,26468.68431599888
327.88656960000003,27486.424239309967
328.2814555,28477.466027967075
328.6780106,29507.75184836785
329.0762465,30557.70004115302
329.47617460000004,31672.13196765662
329.8778065,32793.28552679842
330.281154,33996.213665810355
330.6862289,35236.962022140724
331.0930432,36582.11585177238
331.5016088,38045.05110451064
331.911938,39665.117405656536
332.32404310000004,41452.27645250859
332.7379364,43411.18726659413
333.1536305,45545.97331316643
333.571138,47932.37703674952
333.9904716,50536.85873203075
334.4116443,53364.28489563352
334.834669,56381.44346870963
335.2595588,59673.80260146644
335.686327,63270.211959085646
336.114987,67207.33603843684
336.5455522,71621.89070980178
336.9780363,76657.74676630185
337.41245310000005,82392.4358416612
337.8488164,88925.07737038146
338.28714019999995,96453.06765981871
338.7274388,105021.57480320192
339.1697264,114821.44086126827
339.6140175,125797.25973423885
340.06032660000005,138119.01964609485
340.5086685,151891.25899941535
340.959058,167074.94975018813
341.4115102,183812.62548331672
341.8660403,202197.3857303905
342.32266339999995,222406.93262944117
342.7813952,244522.8680236085
343.24225110000003,268602.1419418743
343.70524710000007,294667.64679431124
344.17039889999995,322864.72724872536
344.6377228,353247.5254956793
345.1072349,385654.9665854472
345.5789517,420036.7037545415
346.0528897,456406.5944873234
346.5290657,494262.9776905013
347.0074967,533666.4360901923
347.48819960000003,574545.7016153375
347.9711917,616090.1802134231
348.45649060000005,658640.0048321871
348.9441137,701520.5872662376
349.434079,745122.170802735
349.9264043,788884.9186659179
350.4211078,832221.7176757492
350.9182079,926864.7490855256
351.4177232,1073937.8410205296
351.9196722,1274270.6333267798
352.42407410000004,1529778.7024208235
352.9309478,1840264.3973642767
353.4403127,2208370.162229112
353.95218839999995,2635108.9637584123
354.4665945,3121546.987678238
354.983551,3564081.893222683
355.503078,3962616.003894798
356.025196,4314956.181399468
356.5499253,4621081.476447619
357.077287,4878266.101358826
357.6073018,5086149.723909293
358.1399912,5243467.029617443
358.6753765,5348494.920179498
359.2134795,5450934.808864072
359.754322,5549397.807999182
360.2979263,5642253.216387495
360.8443147,5728200.303061385
361.3935098,5804443.132571165
361.9455346,5870266.132115734
362.5004122,5924309.835035463
363.058166,5964995.362406878
363.61881960000005,5995354.318982754
364.1823969,6016633.090810622
364.7489221,6029346.256869991
365.3184196,6037101.721352434
365.8909141,6040493.091353561
366.4664305,6041287.510614251
367.0449943,6041515.13408526
367.6266307,6041637.734095805
368.2113658,6041356.476759714
368.7992255,6041474.42282249
369.3902363,6040913.081783517
369.9844249,6041850.63457515
370.5818182,6041729.241763635
371.1824436,6041372.705700767
371.7863286000001,6041000.872800602
372.3935012,6041450.724647788
373.0039896,6041305.599503941
373.6178223,6041934.02468093
374.2350283,6041163.928660602
374.8556368,6041724.765003698
375.4796772,6041685.713848082
376.1071796,6040915.381810046
376.7381741,6041499.56391353
377.3726913,6041272.815221217
378.0107622,6041469.279974215
378.652418,6041946.59046816
379.2976904,6041658.083383915
379.9466115,6040936.004821942
380.5992136,6042052.592930188
381.2555296,6040943.149617323
381.9155926,6041634.414245169
382.5794362,6041346.556323565
383.2470943,6041567.872314094
383.9186014,6041755.424621765
384.5939922,6040651.67300221
385.2733019,6040848.864061321
385.9565661,6041501.346429828
386.6438209,6041248.750451945
387.3351027,6041722.310902745
388.0304484,6041583.073300873
388.7298955,6041565.76458249
389.4334817,6041448.853459628
390.1412452,6041409.13655068
390.853225,6041580.499093468
391.56946,6041316.469231418
392.2899901,6041798.200982727
393.0148555,6041349.258611601
393.7440968,6041785.501459884
394.4777551,6041099.589417549
395.2158722,6041508.815715644
395.9584903,6041808.346386897
396.7056521,6041736.1313756015
397.457401,6041732.580004487
398.2137806,6041483.75548243
398.9748353,6041256.682531122
399.7406101,6041123.070280317
400.5111505,6041398.687640606
401.2865024,6041668.166568786
402.0667126,6040771.526086073
402.8518283,6041544.063021671
403.6418973,6041458.423465791
404.436968,6041794.97291047
405.2370896,6041716.745544635
406.0423117,6041799.390980678
406.8526847,6041667.888269499
407.66825960000006,6041752.6474455325
408.4890879,6041091.345385471
409.3152221,6041333.9377326565
410.1467152,6041418.888710331
410.9836208,6041267.922487689
411.8259934,6041582.111698342
412.673888,6041053.220872142
413.5273605,6041507.692712126
414.38646760000006,6041220.110470022
415.2512664,6041369.747668792
416.1218152,6041509.151945993
416.9981727,6041469.717783559
417.8803987,6041083.071049731
418.7685535,6041162.375219532
419.6626985,6041679.216770876
420.5628957,6041393.520866073
421.4692081,6041454.058600456
422.3816994,6041154.118604627
423.3004343,6041259.917861568
424.2254783,6041587.886140603
425.1568978,6041163.989954001
426.0947602,6041543.146957153
427.0391337,6041875.465037274
427.9900874,6041551.11082297
428.9476917,6041465.007174318
429.9120175,6041196.757514305
430.8831369,6041406.597379079
431.8611232,6041572.654552284
432.8460504,6041289.385339382
433.8379937,6041352.267662233
434.8370293,6041950.354449253
435.8432345,6041809.0111293215
436.8566878,6041196.957093615
437.8774686,6041630.122686878
438.9056575,6041185.198506677
439.9413364,6041668.007592359
440.9845882,6041460.01571034
442.035497,6041377.446455423
443.0941482,6041534.840440024
444.1606283,6041778.7338869525
445.23502520000005,6041574.906556731
446.317428,6041401.142829925
447.407927,6041185.725898285
448.5066141,6041777.770769014
449.6135822,6041076.309181431
450.7289258,6041595.904432111
451.85274060000006,6041312.878325019
452.9851239,6041320.7685384685
454.1261744,6041688.722345752
455.2759921,6041549.94475616
456.4346788,6041474.517601873
457.6023374,6041487.106980708
458.7790727,6041844.583237021
459.9649909,6041321.954801065
461.1601998,6041637.990299447
462.364809,6041236.403361226
463.5789295,6040733.535946148
464.8026741000001,6041428.39883632
466.0361575,6040818.137782877
467.2794956999999,6041150.056473818
468.5328070000001,6041691.059657139
469.7962111000001,6041451.38833796
471.0698299,6041172.088590573
472.3537868,6041070.38439323
473.6482074,6041619.199283183
474.9532192,6041440.060258067
476.2689517,6041630.358774683
477.5955362,6041434.788498166
478.93310639999993,6041399.792374401
480.2817979,6041030.271354318
481.6417484,6041488.948683246
483.01309800000007,6041654.951383088
484.3959889,6041443.545795022
485.7905654,6041388.718273997
487.1969743,6041455.931945649
488.6153648,6041399.830945322
490.0458884,6041088.100495284
491.488699,6041536.565399136
492.943953,6041317.148079717
494.4118094,6041238.820933432
495.8924299,6041740.5617201375
497.3859785,6041552.367773721
498.8926222,6041000.354928792
500.4125306,6041348.751924908
501.9458762,6041885.136560421
503.4928341,6041317.364070848
505.0535827,6041390.745692885
506.628303,6041728.9933635965
508.2171791999999,6040998.500804517
509.8203986,6041310.475455113
511.4381515,6041451.301122374
513.0706316000001,6041536.079320566
514.7180356,6041461.366808738
516.3805639,6041262.912821615
518.0584200000001,6041377.238176583
519.7518110000001,6041619.074669999
521.4609475999999,6041511.225827508
523.186044,6040963.268798735
524.927318,6041797.780564157
526.6849915,6041250.629566277
528.45929,6041801.535888916
530.2504428000001,6041624.678722641
532.0586836,6041591.693545364
533.8842498,6040847.123866842
535.7273833,6041618.171036072
537.5883299,6041771.658242959
539.46734,6041297.839997453
541.3646685,6041518.640753559
543.2805745000001,6041815.3311513215
545.2153222000001,6041554.689116605
547.1691801,6041005.326119603
549.1424218999999,6042049.627992813
551.1353259,6041428.887935181
553.1481756000001,6041708.753807952
555.1812597,6041641.651999112
557.2348721,6041228.388275169
559.3093121,6041563.108061127
561.4048845,6041383.136063333
563.5218996,6041743.707246012
565.6606737000001,6041393.445974939
567.8215287,6041211.729574253
570.0047927,6041527.758236045
572.2107997,6041382.6907846965
574.4398902,6041604.479824643
576.692411,6041080.339388371
578.9687155,6041673.912970799
581.2691637,6041717.811981183
583.5941226,6041551.787210908
585.943966,6041217.89864579
588.3190752,6041449.232654737
590.7198384999999,6041722.0440019015
593.1466518,6041175.422173835
595.5999188999999,6040928.664142101
598.0800512,6041776.301947297
600.5874682,6041708.673870103
603.1225977000001,6041310.347920144
605.6858758999999,6042009.716259048
608.2777476,6041373.320264783
610.8986664,6041205.693542389
613.549095,6040952.482686817
616.2295054,6041341.664050347
703.1812034,6041331.510317459
704.2110782000001,6034408.143058947
705.2443688999999,6001476.751476896
706.2810885,5926489.240218572
707.3212499,5796553.722529887
708.3648661000001,5602613.269924725
709.41195,5340322.041612587
710.4625143999999,5008270.949836734
711.5165721,4607884.872153019
712.5741357,4156723.900602465
713.6352181,3699867.615380514
714.6998317000001,3275251.7292207074
715.7679891,2913561.1965372404
716.8397027999999,2638610.145425174
717.9149852,2463083.3367133485
718.9938487000001,2392333.2506083185
720.0763055,2424636.5527081685
721.162368,2544390.2984507373
722.2520481,2720876.6189036896
723.3453581,2924573.507941234
724.4423098,3130931.83119498
725.5429153,3319571.053113372
726.6471863,3477423.115269578
727.7551346,3597095.198525487
728.866772,3677540.313457483
729.9821099,3721703.684980215
731.1011599,3734003.150441658
732.2239335,3720256.9032198233
733.3504419,3685912.0449722833
734.4806963999999,3635004.723145312
735.6147081,3571533.822726118
736.7524882,3498804.204572731
737.8940474,3419158.277133293
739.0393967,3340101.289983452
740.1885467999999,3271222.9146600426
741.3415084,3227182.6808242938
742.498292,3227320.2178914286
743.658908,3287084.185999661
744.8233667999999,3408783.056766678
745.9916785,3594192.794851364
747.1638532000001,3840141.101026168
748.3399009,4138010.865734168
749.5198315,4471896.625601148
750.7036546,4816154.960030578
751.89138,5135017.870853708
753.0830171,5406252.302718901
754.2785752999999,5627369.349020484
755.4780638,5798713.242807322
756.6814917,5920140.045404918
757.8888678999999,5994846.022156414
759.1002014999999,6031277.724336399
760.3155009,6041422.540877156
761.5347749,6041456.116721397
762.7580318,6041363.412736865
763.98528,6041286.075991209
765.2165276000001,6041626.161114726
766.4517825,6041364.2464734325
767.6910527000001,6041606.193474527
768.9343458999999,6041345.548343788
770.1816697,6041270.78928163
771.4330313999999,6041344.87657087
772.6884382999999,6041528.459953505
773.9478975,6041371.111006471
775.211416,6041768.571698408
776.4790005,6041688.286063748
777.7506578,6041419.630934094
779.0263942,6041108.582573384
780.3062162,6041236.293611111
781.5901297,6041015.763583353
782.8781409,6041687.667570801
784.1702554999999,6041695.519285145
785.4664793,6041842.932652517
786.7668176,6041017.010751676
788.0712758,6041178.356482808
789.3798591,6041251.283727039
790.6925722999999,6041311.861557088
792.0094204,6041393.884977872
793.3304079,6041290.985439526
794.6555392000001,6041472.729320486
795.9848187000001,6041567.287435471
797.3182504,6041163.7793804975
798.6558382999999,6041579.083554664
799.9975861,6041014.559745517
801.3434973,6041133.152911719
802.6935752999999,6041374.299341513
804.0478232999999,6041627.707916914
805.4062443,6041267.702490067
806.7688411,6041746.7636660775
808.1356164,6041317.968144717
809.5065726,6041197.777924172
810.881712,6037544.896481733
812.2610367000001,6028394.59190735
813.6445485,6014816.900926956
815.0322493,5998248.768784817
816.4241404,5982416.504881337
817.8202233,5967149.80877832
819.2204991,5951036.45936847
820.6249687999999,5934797.686519957
822.0336331,5927062.981777205
823.4464925999999,5929779.4752374
824.8635477000001,5942045.484309628
826.2847987,5958121.960509658
827.7102456,5973461.706609474
829.1398882,5989882.647950089
830.5737261,6005201.513707697
832.0117589,6021290.13786632
833.4539857000001,6033398.097096953
834.9004057999999,6039936.180928725
836.3510179,6041890.608300451
837.8058209,6041188.413779288
839.2648132999999,6041467.879739725
840.7279934000001,6041280.521402918
842.1953594,6041140.164031638
843.6669092,6041515.730522771
845.1426408,6041428.60068933
846.6225517000001,6041310.586533397
848.1066392999999,6041520.939658328
849.5949009999999,6041297.197510527
851.0873337999999,6041161.849240896
852.5839347000001,6041478.900197905
854.0847002999999,6041287.716090117
855.5896273,6041251.319928652
857.0987119999999,6041367.33564489
858.6119507000001,6041499.11833986
860.1293393999999,6041329.139505252
861.650874,6041459.402341343
863.1765502000001,6041490.657432567
864.7063635,6041257.659023435
866.2403094,6041336.348469251
867.778383,6041149.03002128
869.3205793999999,6041839.850766764
870.8668935000001,6041288.739347925
872.4173199999999,6041183.783607182
873.9718536,6041532.002847607
875.5304886,6041386.940272795
877.0932193,6041328.881488076
878.6600399,6041058.234669288
880.2309443,6041762.417351128
881.8059264000001,6041203.312318431
883.3849798,6041418.003360568
884.9680981,6041429.322478843
886.5552747000002,6041397.31540148
888.1465029,6041060.210288429
889.7417757000001,6041264.359633659
891.3410862,6041602.531741967
892.9444273,6041232.975990633
894.5517916000001,6041555.92160339
896.1631719000001,6041299.317566822
897.7785605,6041622.802593856
899.3979498,6041630.69443692
901.0213321,6041283.673450068
902.6486995,6041479.290664049
904.280044,6041292.442164497
905.9153575,6041270.44394296
907.5546319,6041050.794765208
909.1978586,6041153.945523327
910.8450295,6041256.961517931
912.4961358,6041027.299609391
914.1511691,6041785.9786400935
915.8101205,6041537.5595049225
917.4729813,6041242.926993521
919.1397426,6041077.478600496
920.8103953,6041337.505155128
922.4849303,6041133.543975286
924.1633386,6041576.44108139
925.8456109,6041554.54729999
927.5317378,6041214.256195001
929.22171,6041894.412019456
930.9155179,6041482.448954918
932.6131521,6041583.984047699
934.3146028,6041736.247791188
936.0198606,6041440.082229637
937.7289155,6041409.849225984
939.4417579,6041478.336114589
941.1583779,6041314.983901771
942.8787656,6041395.1008411925
944.6029109,6041840.892728483
946.3308041,6041876.075752604
948.0624349,6040986.72776355
949.7977933,6041480.451556994
951.5368692,6041445.860766117
953.2796523,6041193.790342455
955.0261327,6041281.1139344815
956.7762999,6041352.118376207
958.5301437,6041402.989568533
960.2876539,6041168.233986389
962.0488201,6041106.01089034
963.813632,6041381.707818882
965.5820793,6040956.1186445085
967.3541517,6041766.752679353
969.1298386,6041809.955394045
970.9091298,6040680.684005692
972.6920149,6042111.601190719
974.4784835,6040792.893440379
976.2685251,6041733.956126005
978.0621293,6041590.435390086
979.8592859,6042133.465484602
981.6599843,6042873.602297604
983.4642142,6041213.157967523
985.2719651,6040836.4467942575
987.0832269,6040873.194806333
988.897989,6040841.138829352
990.7162412,6041645.679377751
992.5379731,6041289.37266297
994.3631745,6041552.363521826
996.191835,6031455.916302208
998.0239445,6001213.5884593325
999.8594926,5942307.909043522
1001.698469,5846733.8667527065
1003.540864,5707560.284899212
1005.386668,5522361.6056684535
1007.235869,5285556.154156412
1009.088458,4995908.391635535
1010.944426,4669098.888067725
1012.803762,4326423.245774676
1014.666456,3984820.096130318
1016.532498,3657840.0516418833
1018.401878,3356337.299297148
1020.274588,3091008.3925567083
1022.150616,2866481.986331553
1024.029953,2687686.6733198487
1025.912591,2545569.553534901
1027.798518,2433091.422565682
1029.687726,2340000.9985964247
1031.580205,2259862.4810585207
1033.475945,2183585.1058121133
1035.3749380000002,2107749.907593725
1037.277175,2028780.953520708
1039.182645,1942645.3150049704
1041.09134,1850905.153987476
1043.003251,1752263.8371960246
1044.918368,1648720.01310298
1046.836683,1541831.0127302962
1048.758188,1434952.265840348
1050.682872,1328869.946519811
1052.610728,1226942.3993354845
1054.541747,1132380.159601252
1056.4759210000002,1044806.0206476344
1058.41324,966826.7752076852
1060.353697,897870.1805388415
1062.297282,837964.6889393901
1064.243989,785584.795399283
1066.193809,741325.6278458548
1068.146734,703964.5906869301
1070.102755,670864.5047357813
1072.061865,641802.6148313585
1074.024056,615294.2940189933
1075.989321,590406.671789814
1077.957651,566059.7307356157
1079.92904,542356.2179932783
1081.9034800000002,518507.8847868306
1083.880963,493817.5933955719
1085.861482,469875.9860790502
1087.8450300000002,446496.0053174853
1089.8316,422639.9163826367
1091.821185,400769.2545503244
1093.8137789999998,379901.84814366815
1095.809373,360343.3140932901
1097.807962,341783.01874921826
1099.809539,325250.5982988232
1101.814098,310652.18691938143
1103.821631,297396.6705832861
1105.832134,285578.9999922994
1107.845599,275461.12799395283
1109.86202,266508.4243037332
1111.881392,258712.15499741075
1113.903708,251345.80207787163
1115.928963,245037.40914595497
1117.95715,238888.33559601448
1119.988266,232735.31006177596
1122.022303,226328.7901872597
1124.059256,219348.72089459345
1126.09912,212541.5018875947
1128.14189,205019.6022342709
1130.187561,197205.0203854668
1132.236128,188992.34282592204
1134.287585,180442.53598648915
1136.341929,172198.97541633062
1138.3991529999998,163901.43355782225
1140.459254,155589.14701926356
1142.522228,147631.50257439114
1144.588069,140017.6072228972
1146.6567730000002,132604.9878781259
1148.728337,125664.53389932936
1150.802756,118926.77871582856
1152.880025,112302.5863227754
1154.960142,105860.81381300966
1157.043103,99446.37039489944
1159.128903,93308.00917405692
1161.217539,87384.42086161932
1163.309007,81446.36604983735
1165.403305,75391.91808117897
1167.500429,69343.81079705039
1169.600375,63448.71508168357
1171.703141,57687.35696417806
1173.808724,51772.028966136575
1175.9171199999998,46098.354691574095
1178.028327,40262.24369235116
1180.142342,34650.68153993727
