wave,flux
306.2504509,2264482.096285416
306.5604242,3020427.6811668733
306.871524,3774798.86911354
307.18375710000004,4531861.195401493
307.4971302,5289186.232819825
307.8116501,6038703.469948607
308.1273236,6043019.559219725
308.4441577,6040136.4165094
308.7621594,6043036.158794127
309.0813356,6040916.522215671
309.4016935,6040168.602471912
309.7232403,6041261.34552041
310.04598300000004,6040362.979145518
310.369929,6043941.355969165
310.6950856,6043410.715438448
311.0214601,6040260.289265413
311.34906010000003,6041775.676726255
311.6778931,6039936.2641597735
312.0079665,6043527.487513063
312.33928810000003,6039166.631331791
312.6718655,6036503.0465676775
313.00570639999995,6036527.275006153
313.3408189,6043124.100937334
313.6772106,6043622.2498497935
314.0148896,6041366.564308917
314.3538639,6042103.433142533
314.6941415,6045049.2382123815
315.0357308,6040263.895800335
315.37863980000003,6043601.566586365
315.7228769,6038743.567028694
316.0684504,6042764.730310034
316.4153688,6037897.1681322185
316.76364069999994,6041956.49871643
317.1132746,6040985.980528212
317.4642791,6038998.614109118
317.8166631,6040668.162456862
318.1704352,6041305.686139785
318.5256045,6040329.382623045
318.8821799,6040301.1894102525
319.2401704,6037578.797649028
319.5995851,6042473.62181123
319.96043330000003,6039332.224826845
320.3227243,6041520.422497469
320.6864673,6042373.69875065
321.0516719,6043655.190196118
321.4183476,6042174.253783583
321.786504,6042428.469495432
322.1561508,6041966.17766239
322.5272977,6039894.517276133
322.8999548,6041908.929101353
323.2741319,6040307.459865626
323.649839,6042015.18762089
324.0270864,6040886.249133107
324.40588419999995,6044524.956401974
324.7862428,6043433.00225632
325.16817260000005,6041240.948469953
325.5516841,6037709.951248163
325.9367879,6040144.333808035
326.32349480000005,6038610.187704156
326.7118154,6040055.794403978
327.1017607,6038041.580422138
327.4933418,6041316.964621518
327.88656960000003,6041376.701518647
328.2814555,6041542.154726479
328.6780106,6043024.939650554
329.0762465,6040492.417431557
329.47617460000004,6043084.81685337
329.8778065,6041887.930240053
330.281154,6038481.010063662
330.6862289,6041687.718822341
331.0930432,6042470.99541476
331.5016088,6039194.691151886
331.911938,6043124.822851688
332.32404310000004,6040300.969412603
332.7379364,6042387.3565601725
333.1536305,6042124.602051789
333.571138,6039151.163670664
333.9904716,6042223.443505539
334.4116443,6040532.716969037
334.834669,6045181.337517478
335.2595588,6040534.369311719
335.686327,6041911.452227104
336.114987,6042218.850554376
336.5455522,6041837.6159615815
336.9780363,6040649.46505588
337.41245310000005,6043081.917824131
337.8488164,6041198.056574041
338.28714019999995,6041225.350679353
338.7274388,6040629.123440119
339.1697264,6042653.673489031
339.6140175,6040857.916904846
340.06032660000005,6041799.975179135
340.5086685,6040796.127249748
340.959058,6041982.316339754
341.4115102,6041373.014139564
341.8660403,6041241.477938268
342.32266339999995,6041465.877090758
342.7813952,6041252.055666878
343.24225110000003,6040619.419578348
343.70524710000007,6041550.423303015
344.17039889999995,6041753.443208718
344.6377228,6042113.716688766
345.1072349,6041353.475704918
345.5789517,6041477.777137149
346.0528897,6041147.068470477
346.5290657,6042089.370508073
347.0074967,6041544.036925026
347.48819960000003,6041581.070331715
347.9711917,6041515.557085461
348.45649060000005,6041631.932449576
348.9441137,6041880.824772924
349.434079,6041468.019329487
349.9264043,6041087.195079466
350.4211078,6041017.870726222
350.9182079,6040807.486600967
351.4177232,6041618.042556467
351.9196722,6041408.418976503
352.42407410000004,6041283.1592861
352.9309478,6041679.868512164
353.4403127,6041992.841621333
353.95218839999995,6041571.103285298
354.4665945,6041315.955643577
354.983551,6041492.496084644
355.503078,6042043.259251068
356.025196,6041103.540981947
356.5499253,6041718.085886727
357.077287,6041477.193364939
357.6073018,6042039.887045963
358.1399912,6041497.372635085
358.6753765,6041501.438641213
359.2134795,6041465.0928369565
359.754322,6040847.724743907
360.2979263,6041177.040275399
360.8443147,6041209.266113251
361.3935098,6041424.210186345
361.9455346,6041495.203994812
362.5004122,6041564.252464056
363.058166,6041282.789397505
363.61881960000005,6041255.402454084
364.1823969,6041210.469087618
364.7489221,6041156.353551996
365.3184196,6042025.46972936
365.8909141,6041584.953318315
366.4664305,6041427.351656665
367.0449943,6041269.525454299
367.6266307,6041180.667403585
368.2113658,6042063.332417651
368.7992255,6041360.094362482
369.3902363,6041011.511463312
369.9844249,6041285.956862996
370.5818182,6041286.738661989
371.1824436,6041200.662581841
371.7863286000001,6040672.267196474
372.3935012,6041117.859063044
373.0039896,6041703.91592612
373.6178223,6041381.009216777
374.2350283,6041209.204431922
374.8556368,6041446.24985027
375.4796772,6041504.53134771
376.1071796,6041005.570338992
376.7381741,6041546.688686756
377.3726913,6041028.949306073
378.0107622,6041496.126079733
378.652418,6041251.639242017
379.2976904,6041101.59021681
379.9466115,6041447.735917425
380.5992136,6041740.333543579
381.2555296,6041707.63476657
381.9155926,6041276.122756803
382.5794362,6041954.682120175
383.2470943,6041518.648512424
383.9186014,6041777.904474262
384.5939922,6041155.723777733
385.2733019,6041250.712725
385.9565661,6041130.803691627
386.6438209,6041790.831138069
387.3351027,6040697.800726953
388.0304484,6041570.503853022
388.7298955,6041287.782631439
389.4334817,6040950.6849987535
390.1412452,6041752.058420115
390.853225,6041557.086759797
391.56946,6041096.975503379
392.2899901,6040943.67913474
393.0148555,6041231.670231433
393.7440968,6041319.827695102
394.4777551,6041481.77892099
395.2158722,6041612.621019217
395.9584903,6041239.033070858
396.7056521,6041582.009614882
397.457401,6041290.845979099
398.2137806,6041328.299043687
398.9748353,6008973.550587462
399.7406101,5945059.8513041865
400.5111505,5852121.318369601
401.2865024,5732050.576849191
402.0667126,5587118.242064534
402.8518283,5418274.764920536
403.6418973,5229238.324090541
404.436968,5019176.595327774
405.2370896,4858791.704723843
406.0423117,4744450.3907024665
406.8526847,4674356.2150458535
407.66825960000006,4645059.731551766
408.4890879,4652386.417802222
409.3152221,4692169.263278069
410.1467152,4762565.47927607
410.9836208,4859354.898266766
411.8259934,4945960.770959253
412.673888,5021266.120115412
413.5273605,5086575.871902904
414.38646760000006,5141798.335525263
415.2512664,5190985.393704115
416.1218152,5234813.241816546
416.9981727,5276234.349611891
417.8803987,5318205.0849121865
418.7685535,5364323.937256332
419.6626985,5416419.065789345
420.5628957,5475398.441761158
421.4692081,5539599.889112856
422.3816994,5609467.206297523
423.3004343,5680532.735949447
424.2254783,5752954.774286873
425.1568978,5821854.507151959
426.0947602,5882591.66183979
427.0391337,5932192.355843201
427.9900874,5971564.509434166
428.9476917,6000468.174309984
429.9120175,6020941.231816426
430.8831369,6033143.884796854
431.8611232,6039513.581684385
432.8460504,6041663.326576602
433.8379937,6040980.558562279
434.8370293,6041347.135242502
435.8432345,6041445.678002113
436.8566878,6041517.54069796
437.8774686,6040932.189920822
438.9056575,6041576.209306362
439.9413364,6041199.96114854
440.9845882,6041332.180191149
442.035497,6041047.554264722
443.0941482,6041453.798796879
444.1606283,6041279.561551037
445.23502520000005,6041065.384955793
446.317428,6041235.295410876
447.407927,6041276.7244858565
448.5066141,6041555.222878623
449.6135822,6041484.143570097
450.7289258,6041356.968114941
451.85274060000006,6041139.4383628825
452.9851239,6041513.526339527
454.1261744,6041544.163513873
455.2759921,6041459.91876418
456.4346788,6041691.425657908
457.6023374,6041239.43029275
458.7790727,6041688.164576291
459.9649909,6041487.656825108
461.1601998,6041645.171264896
462.364809,6041504.595257775
463.5789295,6041626.38267566
464.8026741000001,6041715.213701361
466.0361575,6041511.046515333
467.2794956999999,6041396.9740256965
468.5328070000001,6040976.921560313
469.7962111000001,6041537.157751272
471.0698299,6041686.551702096
472.3537868,6041203.641194773
473.6482074,6041725.694212338
474.9532192,6040962.668727107
476.2689517,6041516.579798058
477.5955362,6041463.689150649
478.93310639999993,6041405.477282462
480.2817979,6040945.953248466
481.6417484,6041404.065294524
483.01309800000007,6041887.52113808
484.3959889,6041358.349629364
485.7905654,6041317.153796934
487.1969743,6041086.485989356
488.6153648,6041315.823448828
490.0458884,6041382.980572468
491.488699,6041493.90409274
492.943953,6041671.94785142
494.4118094,6041106.048492563
495.8924299,6041556.267240313
497.3859785,6041531.998947385
498.8926222,6041672.89486867
500.4125306,6041444.561460297
501.9458762,6041796.132358124
503.4928341,6040849.268851805
505.0535827,6041261.587277822
506.628303,6041312.461108307
508.2171791999999,6041437.931571582
509.8203986,6040949.974295656
511.4381515,6041637.032415164
513.0706316000001,6041315.723182945
514.7180356,6041479.54222633
516.3805639,6040764.176023788
518.0584200000001,6041573.817675193
519.7518110000001,6041795.922383977
521.4609475999999,6041252.226129527
523.186044,6041513.348504251
524.927318,6041366.765554546
526.6849915,6041612.045647417
528.45929,6041457.889042158
530.2504428000001,6041866.93763955
532.0586836,6041541.248308655
533.8842498,6041261.112691062
535.7273833,6041514.609653496
537.5883299,6041274.831468662
539.46734,6041884.250735338
541.3646685,6041058.379675822
543.2805745000001,6041375.276837765
545.2153222000001,6041540.63322504
547.1691801,6041524.550607281
549.1424218999999,6040941.903228099
551.1353259,6041386.91568516
553.1481756000001,6041844.954556784
555.1812597,6041561.544434408
557.2348721,6041274.015503571
559.3093121,6041353.611549205
561.4048845,6041297.326410673
563.5218996,6041621.787972962
565.6606737000001,6041337.571712035
567.8215287,6041345.988653871
570.0047927,6041681.238519676
572.2107997,6041739.427078645
574.4398902,6041863.38586281
576.692411,6041620.169039561
578.9687155,6041506.175798148
581.2691637,6041731.437909656
583.5941226,6041639.782575814
585.943966,6041576.60581893
588.3190752,6041428.358810221
590.7198384999999,6041213.456243867
593.1466518,6041500.232183092
595.5999188999999,6041307.461364288
598.0800512,6040966.614731592
600.5874682,6041928.143248785
603.1225977000001,6041562.244063065
605.6858758999999,6041240.468524747
608.2777476,6041366.291319441
610.8986664,6041305.387216712
613.549095,6040799.072281484
616.2295054,6041739.467017144
618.940379,6041137.239795867
621.6822068,6040901.728381977
624.4554901,6041206.347478579
627.2607402000001,6041003.713034523
630.0984786,6041781.398498952
632.9692378999999,6041885.033080692
635.8735614,6041127.047268868
638.8120038,6041182.048451121
641.7851312999999,6041960.491144361
644.7935217999999,6039308.47741085
647.8377654,6043119.247808548
650.9184646000001,6041297.644846382
654.0362346,6039467.863777543
657.1917038,6042014.988983122
660.3855139,6042882.837748534
663.6183202999999,6042253.591399637
666.8907926,6040844.691181168
670.2036149,6040920.259156771
673.557486,6038707.617702344
676.9531202000001,6040522.831519614
680.3912472999999,6042424.75959779
683.8726131,6042211.404400283
687.3979803,6041909.257475444
690.9681281000001,6041290.345666707
703.1812034,6041331.510317459
704.2110782000001,6034408.143058947
705.2443688999999,6001476.751476896
706.2810885,5926489.240218572
707.3212499,5796553.722529887
708.3648661000001,5602613.269924725
709.41195,5340322.041612587
710.4625143999999,5008270.949836734
711.5165721,4607884.872153019
712.5741357,4156723.900602465
713.6352181,3699867.615380514
714.6998317000001,3275251.7292207074
715.7679891,2913561.1965372404
716.8397027999999,2638610.145425174
717.9149852,2463083.3367133485
718.9938487000001,2392333.2506083185
720.0763055,2424636.5527081685
721.162368,2544390.2984507373
722.2520481,2720876.6189036896
723.3453581,2924573.507941234
724.4423098,3130931.83119498
725.5429153,3319571.053113372
726.6471863,3477423.115269578
727.7551346,3597095.198525487
728.866772,3677540.313457483
729.9821099,3721703.684980215
731.1011599,3734003.150441658
732.2239335,3720256.9032198233
733.3504419,3685912.0449722833
734.4806963999999,3635004.723145312
735.6147081,3571533.822726118
736.7524882,3498804.204572731
737.8940474,3419158.277133293
739.0393967,3340101.289983452
740.1885467999999,3271222.9146600426
741.3415084,3227182.6808242938
742.498292,3227320.2178914286
743.658908,3287084.185999661
744.8233667999999,3408783.056766678
745.9916785,3594192.794851364
747.1638532000001,3840141.101026168
748.3399009,4138010.865734168
749.5198315,4471896.625601148
750.7036546,4816154.960030578
751.89138,5135017.870853708
753.0830171,5406252.302718901
754.2785752999999,5627369.349020484
755.4780638,5798713.242807322
756.6814917,5920140.045404918
757.8888678999999,5994846.022156414
759.1002014999999,6031277.724336399
760.3155009,6041422.540877156
761.5347749,6041456.116721397
762.7580318,6041363.412736865
763.98528,6041286.075991209
765.2165276000001,6041626.161114726
766.4517825,6041364.2464734325
767.6910527000001,6041606.193474527
768.9343458999999,6041345.548343788
770.1816697,6041270.78928163
771.4330313999999,6041344.87657087
772.6884382999999,6041528.459953505
773.9478975,6041371.111006471
775.211416,6041768.571698408
776.4790005,6041688.286063748
777.7506578,6041419.630934094
779.0263942,6041108.582573384
780.3062162,6041236.293611111
781.5901297,6041015.763583353
782.8781409,6041687.667570801
784.1702554999999,6041695.519285145
785.4664793,6041842.932652517
786.7668176,6041017.010751676
788.0712758,6041178.356482808
789.3798591,6041251.283727039
790.6925722999999,6041311.861557088
792.0094204,6041393.884977872
793.3304079,6041290.985439526
794.6555392000001,6041472.729320486
795.9848187000001,6041567.287435471
797.3182504,6041163.7793804975
798.6558382999999,6041579.083554664
799.9975861,6041014.559745517
801.3434973,6041133.152911719
802.6935752999999,6041374.299341513
804.0478232999999,6041627.707916914
805.4062443,6041267.702490067
806.7688411,6041746.7636660775
808.1356164,6041317.968144717
809.5065726,6041197.777924172
810.881712,6037544.896481733
812.2610367000001,6028394.59190735
813.6445485,6014816.900926956
815.0322493,5998248.768784817
816.4241404,5982416.504881337
817.8202233,5967149.80877832
819.2204991,5951036.45936847
820.6249687999999,5934797.686519957
822.0336331,5927062.981777205
823.4464925999999,5929779.4752374
824.8635477000001,5942045.484309628
826.2847987,5958121.960509658
827.7102456,5973461.706609474
829.1398882,5989882.647950089
830.5737261,6005201.513707697
832.0117589,6021290.13786632
833.4539857000001,6033398.097096953
834.9004057999999,6039936.180928725
836.3510179,6041890.608300451
837.8058209,6041188.413779288
839.2648132999999,6041467.879739725
840.7279934000001,6041280.521402918
842.1953594,6041140.164031638
843.6669092,6041515.730522771
845.1426408,6041428.60068933
846.6225517000001,6041310.586533397
848.1066392999999,6041520.939658328
849.5949009999999,6041297.197510527
851.0873337999999,6041161.849240896
852.5839347000001,6041478.900197905
854.0847002999999,6041287.716090117
855.5896273,6041251.319928652
857.0987119999999,6041367.33564489
858.6119507000001,6041499.11833986
860.1293393999999,6041329.139505252
861.650874,6041459.402341343
863.1765502000001,6041490.657432567
864.7063635,6041257.659023435
866.2403094,6041336.348469251
867.778383,6041149.03002128
869.3205793999999,6041839.850766764
870.8668935000001,6041288.739347925
872.4173199999999,6041183.783607182
873.9718536,6041532.002847607
875.5304886,6041386.940272795
877.0932193,6041328.881488076
878.6600399,6041058.234669288
880.2309443,6041762.417351128
881.8059264000001,6041203.312318431
883.3849798,6041418.003360568
884.9680981,6041429.322478843
886.5552747000002,6041397.31540148
888.1465029,6041060.210288429
889.7417757000001,6041264.359633659
891.3410862,6041602.531741967
892.9444273,6041232.975990633
894.5517916000001,6041555.92160339
896.1631719000001,6041299.317566822
897.7785605,6041622.802593856
899.3979498,6041630.69443692
901.0213321,6041283.673450068
902.6486995,6041479.290664049
904.280044,6041292.442164497
905.9153575,6041270.44394296
907.5546319,6041050.794765208
909.1978586,6041153.945523327
910.8450295,6041256.961517931
912.4961358,6041027.299609391
914.1511691,6041785.9786400935
915.8101205,6041537.5595049225
917.4729813,6041242.926993521
919.1397426,6041077.478600496
920.8103953,6041337.505155128
922.4849303,6041133.543975286
924.1633386,6041576.44108139
925.8456109,6041554.54729999
927.5317378,6041214.256195001
929.22171,6041894.412019456
930.9155179,6041482.448954918
932.6131521,6041583.984047699
934.3146028,6041736.247791188
936.0198606,6041440.082229637
937.7289155,6041409.849225984
939.4417579,6041478.336114589
941.1583779,6041314.983901771
942.8787656,6041395.1008411925
944.6029109,6041840.892728483
946.3308041,6041876.075752604
948.0624349,6040986.72776355
949.7977933,6041480.451556994
951.5368692,6041445.860766117
953.2796523,6041193.790342455
955.0261327,6041281.1139344815
956.7762999,6041352.118376207
958.5301437,6041402.989568533
960.2876539,6041168.233986389
962.0488201,6041106.01089034
963.813632,6041381.707818882
965.5820793,6040956.1186445085
967.3541517,6041766.752679353
969.1298386,6041809.955394045
970.9091298,6040680.684005692
972.6920149,6042111.601190719
974.4784835,6040792.893440379
976.2685251,6041733.956126005
978.0621293,6041590.435390086
979.8592859,6042133.465484602
981.6599843,6042873.602297604
983.4642142,6041213.157967523
985.2719651,6040836.4467942575
987.0832269,6040873.194806333
988.897989,6040841.138829352
990.7162412,6041645.679377751
992.5379731,6041289.37266297
994.3631745,6041552.363521826
996.191835,6031455.916302208
998.0239445,6001213.5884593325
999.8594926,5942307.909043522
1001.698469,5846733.8667527065
1003.540864,5707560.284899212
1005.386668,5522361.6056684535
1007.235869,5285556.154156412
1009.088458,4995908.391635535
1010.944426,4669098.888067725
1012.803762,4326423.245774676
1014.666456,3984820.096130318
1016.532498,3657840.0516418833
1018.401878,3356337.299297148
1020.274588,3091008.3925567083
1022.150616,2866481.986331553
1024.029953,2687686.6733198487
1025.912591,2545569.553534901
1027.798518,2433091.422565682
1029.687726,2340000.9985964247
1031.580205,2259862.4810585207
1033.475945,2183585.1058121133
1035.3749380000002,2107749.907593725
1037.277175,2028780.953520708
1039.182645,1942645.3150049704
1041.09134,1850905.153987476
1043.003251,1752263.8371960246
1044.918368,1648720.01310298
1046.836683,1541831.0127302962
1048.758188,1434952.265840348
1050.682872,1328869.946519811
1052.610728,1226942.3993354845
1054.541747,1132380.159601252
1056.4759210000002,1044806.0206476344
1058.41324,966826.7752076852
1060.353697,897870.1805388415
1062.297282,837964.6889393901
1064.243989,785584.795399283
1066.193809,741325.6278458548
1068.146734,703964.5906869301
1070.102755,670864.5047357813
1072.061865,641802.6148313585
1074.024056,615294.2940189933
1075.989321,590406.671789814
1077.957651,566059.7307356157
1079.92904,542356.2179932783
1081.9034800000002,518507.8847868306
1083.880963,493817.5933955719
1085.861482,469875.9860790502
1087.8450300000002,446496.0053174853
1089.8316,422639.9163826367
1091.821185,400769.2545503244
1093.8137789999998,379901.84814366815
1095.809373,360343.3140932901
1097.807962,341783.01874921826
1099.809539,325250.5982988232
1101.814098,310652.18691938143
1103.821631,297396.6705832861
1105.832134,285578.9999922994
1107.845599,275461.12799395283
1109.86202,266508.4243037332
1111.881392,258712.15499741075
1113.903708,251345.80207787163
1115.928963,245037.40914595497
1117.95715,238888.33559601448
1119.988266,232735.31006177596
1122.022303,226328.7901872597
1124.059256,219348.72089459345
1126.09912,212541.5018875947
1128.14189,205019.6022342709
1130.187561,197205.0203854668
1132.236128,188992.34282592204
