wave,flux
306.2504509,197.80326343725727
306.5604242,332.4247568663111
306.871524,506.98972706340913
307.18375710000004,737.0642413230357
307.4971302,1018.06443159352
307.8116501,1381.4106843559784
308.1273236,1622.9008281144595
308.4441577,1896.4950089604968
308.7621594,2203.8458636701057
309.0813356,2535.15378515539
309.4016935,2895.029842970473
309.7232403,3280.134886585755
310.04598300000004,3680.3612297626814
310.369929,4106.87751741613
310.6950856,4540.5715957561
311.0214601,4983.413544563139
311.34906010000003,5439.060531719618
311.6778931,5926.044555863562
312.0079665,6404.439102069486
312.33928810000003,6896.909932913749
312.6718655,7415.0123467891135
313.00570639999995,7952.003542662518
313.3408189,8487.043511719165
313.6772106,9060.390903970389
314.0148896,9641.846377927272
314.3538639,10246.148049354477
314.6941415,10856.20497574673
315.0357308,11485.494507245765
315.37863980000003,12152.729066889402
315.7228769,12808.99879177532
316.0684504,13509.308630507
316.4153688,14210.193770704896
316.76364069999994,14946.3649677076
317.1132746,15692.669795248514
317.4642791,16431.223223725414
317.8166631,17229.210049513407
318.1704352,18016.542011284742
318.5256045,18825.558095965032
318.8821799,19636.112807489342
319.2401704,20489.32653160618
319.5995851,21344.35727654448
319.96043330000003,22244.11210457109
320.3227243,23129.50605270472
320.6864673,24040.988263226947
321.0516719,25009.453720417798
321.4183476,26019.44589207857
321.786504,27032.20302540933
322.1561508,28109.95396664322
322.5272977,29237.40539461881
322.8999548,30477.381721638067
323.2741319,31847.673320141224
323.649839,33333.078091309086
324.0270864,34903.60979832315
324.40588419999995,36698.22917579759
324.7862428,38619.45029009266
325.16817260000005,40651.335991382926
325.5516841,42818.65755843618
325.9367879,45003.28521319293
326.32349480000005,47203.10873163517
326.7118154,49377.58034534174
327.1017607,51575.51478051688
327.4933418,53729.44417472861
327.88656960000003,55844.05129416459
328.2814555,58015.72608975096
328.6780106,60129.24939259577
329.0762465,62290.313228706575
329.47617460000004,64503.48284090753
329.8778065,66805.10766569276
330.281154,69165.03818060376
330.6862289,71541.93922376323
331.0930432,74096.31898815923
331.5016088,76739.59517860456
331.911938,79456.81948504297
332.32404310000004,82398.32462038002
332.7379364,85528.78924488535
333.1536305,88935.25206511766
333.571138,92743.538375149
333.9904716,96941.87241352085
334.4116443,101817.23141656736
334.834669,107366.53946401206
335.2595588,113969.27884451656
335.686327,121750.88853001688
336.114987,131083.6921659085
336.5455522,142090.61544698194
336.9780363,155006.89174700784
337.41245310000005,170339.37073698727
337.8488164,188348.71632442085
338.28714019999995,209197.18334691436
338.7274388,233317.7855724897
339.1697264,260900.03639350808
339.6140175,292149.8299526925
340.06032660000005,327442.44102184096
340.5086685,366963.5800151053
340.959058,410921.2103760782
341.4115102,459500.1044779556
341.8660403,513108.23482630186
342.32266339999995,571455.6988077901
342.7813952,635018.8345199082
343.24225110000003,703436.8409665808
343.70524710000007,776655.6780525614
344.17039889999995,854025.4479341026
344.6377228,934933.915304108
345.1072349,1018690.8643080858
345.5789517,1104347.6885503535
346.0528897,1190442.4802328404
346.5290657,1276300.448970525
347.0074967,1359802.8864107504
347.48819960000003,1440667.9774470204
347.9711917,1517750.1320401526
348.45649060000005,1589719.1630983169
348.9441137,1657122.7850419916
349.434079,1718956.41727238
349.9264043,1775416.7742767646
350.4211078,1827013.192158709
350.9182079,1873939.4376848028
351.4177232,1917183.9440884471
351.9196722,1956777.4559533843
352.42407410000004,1993917.322756329
352.9309478,2028691.2587845884
353.4403127,2061077.6857586068
353.95218839999995,2092512.6188673745
354.4665945,2122216.001688075
354.983551,2150596.4239552985
355.503078,2177739.6120906197
356.025196,2203445.1782156085
356.5499253,2227654.929068622
357.077287,2249783.6948111947
357.6073018,2270538.7560999547
358.1399912,2289040.814986026
358.6753765,2306097.121083772
359.2134795,2320691.340603461
359.754322,2333236.581260806
360.2979263,2343566.82533408
360.8443147,2352589.5340836365
361.3935098,2359894.7801290127
361.9455346,2366688.534849164
362.5004122,2373817.427269636
363.058166,2381942.036448102
363.61881960000005,2393637.082446125
364.1823969,2410478.8748357883
364.7489221,2434091.520808065
365.3184196,2467484.52211521
365.8909141,2512561.249054946
366.4664305,2570868.398346283
367.0449943,2643017.9150493257
367.6266307,2729228.98705128
368.2113658,2827463.531966058
368.7992255,2934804.2461677105
369.3902363,3046403.1521876333
369.9844249,3156774.7278141105
370.5818182,3259165.92576584
371.1824436,3346855.6558319093
371.7863286000001,3414189.1891842177
372.3935012,3456118.1469431617
373.0039896,3469743.999802892
373.6178223,3454673.578246114
374.2350283,3411687.663463675
374.8556368,3345011.54452054
375.4796772,3260451.108329961
376.1071796,3165154.791783845
376.7381741,3064640.259642076
377.3726913,2966744.2962179338
378.0107622,2876962.9639203683
378.652418,2799984.536457356
379.2976904,2739789.169433392
379.9466115,2697570.57809406
380.5992136,2673545.882021919
381.2555296,2667706.449532692
381.9155926,2678923.04997242
382.5794362,2706765.1725137983
383.2470943,2749406.7632486173
383.9186014,2805700.678489492
384.5939922,2874560.7271576435
385.2733019,2955673.682500264
385.9565661,3048112.507951206
386.6438209,3150431.471117308
387.3351027,3262389.3874581736
388.0304484,3383233.8647765843
388.7298955,3512178.0160852573
389.4334817,3649107.351638212
390.1412452,3792628.334099882
390.853225,3941567.837300413
391.56946,4097284.468513169
392.2899901,4257316.366671688
393.0148555,4421383.604956484
393.7440968,4587772.475162071
394.4777551,4753636.415237342
395.2158722,4918742.353529039
395.9584903,5080413.79218812
396.7056521,5235389.3428594535
397.457401,5380241.06557885
398.2137806,5512265.750115606
398.9748353,5630624.233537732
399.7406101,5733817.452575409
400.5111505,5820013.098193875
401.2865024,5889249.185166597
402.0667126,5942339.248543251
402.8518283,5980238.090215384
403.6418973,6006985.716302574
404.436968,6024212.02209272
405.2370896,6034690.879288693
406.0423117,6039915.312452171
406.8526847,6040982.56122328
407.66825960000006,6041312.53894699
408.4890879,6041250.744208237
409.3152221,6041744.767235959
410.1467152,6041358.862590383
410.9836208,6041582.037382668
411.8259934,6041397.559324103
412.673888,6041539.7448845375
413.5273605,6041117.91397411
414.38646760000006,6040709.022178539
415.2512664,6041615.100789718
416.1218152,6041180.065580098
416.9981727,6041839.768505776
417.8803987,6040938.90689641
418.7685535,6041699.785352021
419.6626985,6041348.566441532
420.5628957,6041235.488051288
421.4692081,6041761.157960071
422.3816994,6041503.348965627
423.3004343,6041362.984035835
424.2254783,6041780.36753107
425.1568978,6041657.581712564
426.0947602,6041404.608119325
427.0391337,6041291.115281913
427.9900874,6041514.120439082
428.9476917,6041468.943936707
429.9120175,6041440.953635912
430.8831369,6041435.49995621
431.8611232,6041736.107473457
432.8460504,6041554.883090918
433.8379937,6040931.162337115
434.8370293,6041276.888386797
435.8432345,6041356.662224095
436.8566878,6041483.260709605
437.8774686,6041409.174246618
438.9056575,6041372.211147863
439.9413364,6041505.030426143
440.9845882,6041352.413354011
442.035497,6041789.286541445
443.0941482,6041950.42818383
444.1606283,6041276.842027701
445.23502520000005,6041542.50604516
446.317428,6041155.56888944
447.407927,6041399.052774328
448.5066141,6041410.395229273
449.6135822,6041899.809159244
450.7289258,6041692.695420845
451.85274060000006,6041672.193998091
452.9851239,6041081.847143271
454.1261744,6041670.630332762
455.2759921,6041216.731556814
456.4346788,6040992.173757541
457.6023374,6040953.282737493
458.7790727,6041594.57930606
459.9649909,6041596.730486858
461.1601998,6041221.650684632
462.364809,6041512.80845373
463.5789295,6041276.627346942
464.8026741000001,6041792.338729367
466.0361575,6041649.108388677
467.2794956999999,6041055.910908034
468.5328070000001,6041391.2968716575
469.7962111000001,6041600.193009122
471.0698299,6041479.69870072
472.3537868,6041174.772036438
473.6482074,6041485.260586463
474.9532192,6041257.67357403
476.2689517,6040976.304239919
477.5955362,6041316.072924464
478.93310639999993,6041842.231190408
480.2817979,6041219.209155561
481.6417484,6041257.531773385
483.01309800000007,6041433.761139885
484.3959889,6041541.320005443
485.7905654,6041523.776442834
487.1969743,6041199.076107119
488.6153648,6041661.652524033
490.0458884,6041568.510024219
491.488699,6041443.998665388
492.943953,6041647.647338241
494.4118094,6041382.803336322
495.8924299,6041463.1256531
497.3859785,6041120.810617705
498.8926222,6041119.194542753
500.4125306,6041167.3737982325
501.9458762,6041454.320595022
503.4928341,6041220.61214781
505.0535827,6041560.541127457
506.628303,6041361.79745589
508.2171791999999,6041549.205168701
509.8203986,6041103.66166071
511.4381515,6040860.421736142
513.0706316000001,6041023.767197916
514.7180356,6041464.978164644
516.3805639,6041447.541944757
518.0584200000001,6041852.672007344
519.7518110000001,6041264.087633885
521.4609475999999,6041029.497101211
523.186044,6041484.5840983335
524.927318,6041119.4799587615
526.6849915,6041523.1896924935
528.45929,6041221.7691886
530.2504428000001,6041232.742705762
532.0586836,6041540.901079176
533.8842498,6041606.91829044
535.7273833,6041719.699422668
537.5883299,6041454.1229781965
539.46734,6041447.349751519
541.3646685,6041638.613638584
543.2805745000001,6041251.5638207365
545.2153222000001,6041519.161393913
547.1691801,6041623.178637457
549.1424218999999,6041584.747489053
551.1353259,6041192.146296244
553.1481756000001,6041604.931632574
555.1812597,6041132.857850667
557.2348721,6041185.987210935
559.3093121,6041413.892216961
561.4048845,6041637.258188877
563.5218996,6041360.04937115
565.6606737000001,6041267.991707413
567.8215287,6041794.051255387
570.0047927,6041537.300135736
572.2107997,6041156.768223829
574.4398902,6041167.8666580925
576.692411,6041325.17652249
578.9687155,6041498.958680371
581.2691637,6041286.58924507
583.5941226,6041498.579344127
585.943966,6041379.490004593
588.3190752,6041514.751484683
590.7198384999999,6041770.845577754
593.1466518,6041359.705859583
595.5999188999999,6041982.307635453
598.0800512,6041218.555233805
600.5874682,6041385.950705104
603.1225977000001,6041552.527620011
605.6858758999999,6041294.255351762
608.2777476,6041323.719645614
610.8986664,6041131.869482071
613.549095,6041544.736432457
616.2295054,6041739.068492018
618.940379,6041173.936233843
621.6822068,6041849.100928605
624.4554901,6041282.364031388
627.2607402000001,6040587.443363357
630.0984786,6041182.483713033
632.9692378999999,6040861.736000155
635.8735614,6042324.173153767
638.8120038,6041155.346227148
641.7851312999999,6041355.18586308
644.7935217999999,6042967.548256249
647.8377654,6040734.335050724
650.9184646000001,6040976.8568811575
654.0362346,6041445.366456191
657.1917038,6039802.940853952
660.3855139,6040460.163501519
663.6183202999999,6040847.051076674
666.8907926,6040603.299206798
670.2036149,6042860.6909282375
673.557486,6039449.776321108
676.9531202000001,6040272.3905969225
680.3912472999999,6042436.917771437
683.8726131,6040092.961851777
687.3979803,6039216.0136093935
690.9681281000001,6041386.963607846
703.1812034,6041331.510317459
704.2110782000001,6034408.143058947
705.2443688999999,6001476.751476896
706.2810885,5926489.240218572
707.3212499,5796553.722529887
708.3648661000001,5602613.269924725
709.41195,5340322.041612587
710.4625143999999,5008270.949836734
711.5165721,4607884.872153019
712.5741357,4156723.900602465
713.6352181,3699867.615380514
714.6998317000001,3275251.7292207074
715.7679891,2913561.1965372404
716.8397027999999,2638610.145425174
717.9149852,2463083.3367133485
718.9938487000001,2392333.2506083185
720.0763055,2424636.5527081685
721.162368,2544390.2984507373
722.2520481,2720876.6189036896
723.3453581,2924573.507941234
724.4423098,3130931.83119498
725.5429153,3319571.053113372
726.6471863,3477423.115269578
727.7551346,3597095.198525487
728.866772,3677540.313457483
729.9821099,3721703.684980215
731.1011599,3734003.150441658
732.2239335,3720256.9032198233
733.3504419,3685912.0449722833
734.4806963999999,3635004.723145312
735.6147081,3571533.822726118
736.7524882,3498804.204572731
737.8940474,3419158.277133293
739.0393967,3340101.289983452
740.1885467999999,3271222.9146600426
741.3415084,3227182.6808242938
742.498292,3227320.2178914286
743.658908,3287084.185999661
744.8233667999999,3408783.056766678
745.9916785,3594192.794851364
747.1638532000001,3840141.101026168
748.3399009,4138010.865734168
749.5198315,4471896.625601148
750.7036546,4816154.960030578
751.89138,5135017.870853708
753.0830171,5406252.302718901
754.2785752999999,5627369.349020484
755.4780638,5798713.242807322
756.6814917,5920140.045404918
757.8888678999999,5994846.022156414
759.1002014999999,6031277.724336399
760.3155009,6041422.540877156
761.5347749,6041456.116721397
762.7580318,6041363.412736865
763.98528,6041286.075991209
765.2165276000001,6041626.161114726
766.4517825,6041364.2464734325
767.6910527000001,6041606.193474527
768.9343458999999,6041345.548343788
770.1816697,6041270.78928163
771.4330313999999,6041344.87657087
772.6884382999999,6041528.459953505
773.9478975,6041371.111006471
775.211416,6041768.571698408
776.4790005,6041688.286063748
777.7506578,6041419.630934094
779.0263942,6041108.582573384
780.3062162,6041236.293611111
781.5901297,6041015.763583353
782.8781409,6041687.667570801
784.1702554999999,6041695.519285145
785.4664793,6041842.932652517
786.7668176,6041017.010751676
788.0712758,6041178.356482808
789.3798591,6041251.283727039
790.6925722999999,6041311.861557088
792.0094204,6041393.884977872
793.3304079,6041290.985439526
794.6555392000001,6041472.729320486
795.9848187000001,6041567.287435471
797.3182504,6041163.7793804975
798.6558382999999,6041579.083554664
799.9975861,6041014.559745517
801.3434973,6041133.152911719
802.6935752999999,6041374.299341513
804.0478232999999,6041627.707916914
805.4062443,6041267.702490067
806.7688411,6041746.7636660775
808.1356164,6041317.968144717
809.5065726,6041197.777924172
810.881712,6037544.896481733
812.2610367000001,6028394.59190735
813.6445485,6014816.900926956
815.0322493,5998248.768784817
816.4241404,5982416.504881337
817.8202233,5967149.80877832
819.2204991,5951036.45936847
820.6249687999999,5934797.686519957
822.0336331,5927062.981777205
823.4464925999999,5929779.4752374
824.8635477000001,5942045.484309628
826.2847987,5958121.960509658
827.7102456,5973461.706609474
829.1398882,5989882.647950089
830.5737261,6005201.513707697
832.0117589,6021290.13786632
833.4539857000001,6033398.097096953
834.9004057999999,6039936.180928725
836.3510179,6041890.608300451
837.8058209,6041188.413779288
839.2648132999999,6041467.879739725
840.7279934000001,6041280.521402918
842.1953594,6041140.164031638
843.6669092,6041515.730522771
845.1426408,6041428.60068933
846.6225517000001,6041310.586533397
848.1066392999999,6041520.939658328
849.5949009999999,6041297.197510527
851.0873337999999,6041161.849240896
852.5839347000001,6041478.900197905
854.0847002999999,6041287.716090117
855.5896273,6041251.319928652
857.0987119999999,6041367.33564489
858.6119507000001,6041499.11833986
860.1293393999999,6041329.139505252
861.650874,6041459.402341343
863.1765502000001,6041490.657432567
864.7063635,6041257.659023435
866.2403094,6041336.348469251
867.778383,6041149.03002128
869.3205793999999,6041839.850766764
870.8668935000001,6041288.739347925
872.4173199999999,6041183.783607182
873.9718536,6041532.002847607
875.5304886,6041386.940272795
877.0932193,6041328.881488076
878.6600399,6041058.234669288
880.2309443,6041762.417351128
881.8059264000001,6041203.312318431
883.3849798,6041418.003360568
884.9680981,6041429.322478843
886.5552747000002,6041397.31540148
888.1465029,6041060.210288429
889.7417757000001,6041264.359633659
891.3410862,6041602.531741967
892.9444273,6041232.975990633
894.5517916000001,6041555.92160339
896.1631719000001,6041299.317566822
897.7785605,6041622.802593856
899.3979498,6041630.69443692
901.0213321,6041283.673450068
902.6486995,6041479.290664049
904.280044,6041292.442164497
905.9153575,6041270.44394296
907.5546319,6041050.794765208
909.1978586,6041153.945523327
910.8450295,6041256.961517931
912.4961358,6041027.299609391
914.1511691,6041785.9786400935
915.8101205,6041537.5595049225
917.4729813,6041242.926993521
919.1397426,6041077.478600496
920.8103953,6041337.505155128
922.4849303,6041133.543975286
924.1633386,6041576.44108139
925.8456109,6041554.54729999
927.5317378,6041214.256195001
929.22171,6041894.412019456
930.9155179,6041482.448954918
932.6131521,6041583.984047699
934.3146028,6041736.247791188
936.0198606,6041440.082229637
937.7289155,6041409.849225984
939.4417579,6041478.336114589
941.1583779,6041314.983901771
942.8787656,6041395.1008411925
944.6029109,6041840.892728483
946.3308041,6041876.075752604
948.0624349,6040986.72776355
949.7977933,6041480.451556994
951.5368692,6041445.860766117
953.2796523,6041193.790342455
955.0261327,6041281.1139344815
956.7762999,6041352.118376207
958.5301437,6041402.989568533
960.2876539,6041168.233986389
962.0488201,6041106.01089034
963.813632,6041381.707818882
965.5820793,6040956.1186445085
967.3541517,6041766.752679353
969.1298386,6041809.955394045
970.9091298,6040680.684005692
972.6920149,6042111.601190719
974.4784835,6040792.893440379
976.2685251,6041733.956126005
978.0621293,6041590.435390086
979.8592859,6042133.465484602
981.6599843,6042873.602297604
983.4642142,6041213.157967523
985.2719651,6040836.4467942575
987.0832269,6040873.194806333
988.897989,6040841.138829352
990.7162412,6041645.679377751
992.5379731,6041289.37266297
994.3631745,6041552.363521826
996.191835,6031455.916302208
998.0239445,6001213.5884593325
999.8594926,5942307.909043522
1001.698469,5846733.8667527065
1003.540864,5707560.284899212
1005.386668,5522361.6056684535
1007.235869,5285556.154156412
1009.088458,4995908.391635535
1010.944426,4669098.888067725
1012.803762,4326423.245774676
1014.666456,3984820.096130318
1016.532498,3657840.0516418833
1018.401878,3356337.299297148
1020.274588,3091008.3925567083
1022.150616,2866481.986331553
1024.029953,2687686.6733198487
1025.912591,2545569.553534901
1027.798518,2433091.422565682
1029.687726,2340000.9985964247
1031.580205,2259862.4810585207
1033.475945,2183585.1058121133
1035.3749380000002,2107749.907593725
1037.277175,2028780.953520708
1039.182645,1942645.3150049704
1041.09134,1850905.153987476
1043.003251,1752263.8371960246
1044.918368,1648720.01310298
1046.836683,1541831.0127302962
1048.758188,1434952.265840348
1050.682872,1328869.946519811
1052.610728,1226942.3993354845
1054.541747,1132380.159601252
1056.4759210000002,1044806.0206476344
1058.41324,966826.7752076852
1060.353697,897870.1805388415
1062.297282,837964.6889393901
1064.243989,785584.795399283
1066.193809,741325.6278458548
1068.146734,703964.5906869301
1070.102755,670864.5047357813
1072.061865,641802.6148313585
1074.024056,615294.2940189933
1075.989321,590406.671789814
1077.957651,566059.7307356157
1079.92904,542356.2179932783
1081.9034800000002,518507.8847868306
1083.880963,493817.5933955719
1085.861482,469875.9860790502
1087.8450300000002,446496.0053174853
1089.8316,422639.9163826367
1091.821185,400769.2545503244
1093.8137789999998,379901.84814366815
1095.809373,360343.3140932901
1097.807962,341783.01874921826
1099.809539,325250.5982988232
1101.814098,310652.18691938143
1103.821631,297396.6705832861
1105.832134,285578.9999922994
1107.845599,275461.12799395283
1109.86202,266508.4243037332
1111.881392,258712.15499741075
1113.903708,251345.80207787163
1115.928963,245037.40914595497
1117.95715,238888.33559601448
1119.988266,232735.31006177596
1122.022303,226328.7901872597
1124.059256,219348.72089459345
1126.09912,212541.5018875947
