wave,flux
306.2504509,13.994280101228329
306.5604242,17.562703832349662
306.871524,30.272735207103576
307.18375710000004,45.59872280712103
307.4971302,60.51805849232637
307.8116501,80.19050603513948
308.1273236,101.27319760371108
308.4441577,117.05860738598084
308.7621594,131.01121926655372
309.0813356,156.52430083651026
309.4016935,178.4161639992186
309.7232403,202.26238028020032
310.04598300000004,232.68874037441373
310.369929,260.08098615098856
310.6950856,293.753713050004
311.0214601,329.83360631563016
311.34906010000003,366.9623543159372
311.6778931,406.4982646492534
312.0079665,449.3949103702665
312.33928810000003,490.8709158267432
312.6718655,540.8866262242701
313.00570639999995,590.3614076078794
313.3408189,639.8221892401527
313.6772106,695.4421253621141
314.0148896,754.9249732401039
314.3538639,811.8157585967019
314.6941415,866.7225629692729
315.0357308,924.7098309299744
315.37863980000003,1009.2445931770972
315.7228769,1104.1924993658413
316.0684504,1148.225712696201
316.4153688,1077.212469233149
316.76364069999994,1067.345819434523
317.1132746,1483.0768987817328
317.4642791,1722.8155780020163
317.8166631,1099.9265339618803
318.1704352,856.4854205394197
318.5256045,2107.537890414928
318.8821799,342.05518887354384
319.2401704,1741.747800768172
319.5995851,2307.4735997407683
319.96043330000003,1363.4618075758854
320.3227243,1084.9341928870886
320.6864673,34970.649012967406
321.0516719,113753.05175692053
321.4183476,242908.63239763625
321.786504,419418.4389392076
322.1561508,646427.4540348891
322.5272977,923538.6881796464
322.8999548,1255791.4416452397
323.2741319,1640664.8020877938
323.649839,2016172.7772515365
324.0270864,2350252.7207311983
324.40588419999995,2647316.426227532
324.7862428,2903178.35666828
325.16817260000005,3120540.057163525
325.5516841,3294799.085606748
325.9367879,3425558.64969458
326.32349480000005,3512538.0314619644
326.7118154,3586665.611017707
327.1017607,3668024.147360493
327.4933418,3749039.790910408
327.88656960000003,3831745.267211922
328.2814555,3919605.126497922
328.6780106,4009112.7610055055
329.0762465,4102599.91439678
329.47617460000004,4200364.680160241
329.8778065,4298989.224680629
330.281154,4401461.231482601
330.6862289,4508708.539800664
331.0930432,4618976.570799774
331.5016088,4734596.300462452
331.911938,4853607.457711661
332.32404310000004,4978025.4827511385
332.7379364,5103088.538851768
333.1536305,5231557.371363309
333.571138,5358748.926773653
333.9904716,5480359.478208483
334.4116443,5595667.201196552
334.834669,5701609.684277201
335.2595588,5792680.086594931
335.686327,5868919.88287803
336.114987,5928000.263717198
336.5455522,5974321.569805534
336.9780363,6003353.443173982
337.41245310000005,6023799.582506771
337.8488164,6034640.108262904
338.28714019999995,6039640.018463919
338.7274388,6041506.51560797
339.1697264,6042017.284304167
339.6140175,6041892.351699556
340.06032660000005,6041823.785861998
340.5086685,6041710.370071543
340.959058,6041701.761626722
341.4115102,6041030.70652822
341.8660403,6041160.833659172
342.32266339999995,6041701.589924698
342.7813952,6040990.320302132
343.24225110000003,6041482.4535155175
343.70524710000007,6040777.82078906
344.17039889999995,6041043.904624384
344.6377228,6041137.562623279
345.1072349,6041898.4678250365
345.5789517,6041325.81895835
346.0528897,6041295.710897669
346.5290657,6042170.1397114415
347.0074967,6041221.275988941
347.48819960000003,6041042.368283921
347.9711917,6041324.866463176
348.45649060000005,6041005.694090357
348.9441137,6041112.8207243625
349.434079,6041346.0875973925
349.9264043,6040841.754465738
350.4211078,6041112.521079337
350.9182079,6040952.426175553
351.4177232,6041811.743530815
351.9196722,6041424.174014959
352.42407410000004,6041646.520151586
352.9309478,6041666.12055522
353.4403127,6041465.644441622
353.95218839999995,6040756.547761912
354.4665945,6040989.415278763
354.983551,6041463.664590246
355.503078,6041309.144777976
356.025196,6041463.043903541
356.5499253,6041602.936359992
357.077287,6041514.200564113
357.6073018,6041080.293789703
358.1399912,6041906.324799841
358.6753765,6041150.737205007
359.2134795,6041183.233133057
359.754322,6041398.097076861
360.2979263,6041471.630227896
360.8443147,6041901.773336284
361.3935098,6041272.204242853
361.9455346,6041464.75363075
362.5004122,6041312.209972463
363.058166,6041317.65611914
363.61881960000005,6041725.294367984
364.1823969,6041887.796106269
364.7489221,6041751.927403731
365.3184196,6042042.207490682
365.8909141,6041212.011260434
366.4664305,6041522.553963501
367.0449943,6041576.614947925
367.6266307,6041677.352446004
368.2113658,6041714.8063052725
368.7992255,6041460.599111154
369.3902363,6041502.595361123
369.9844249,6041640.535960607
370.5818182,6041518.475491852
371.1824436,6041596.36621632
371.7863286000001,6041612.373967866
372.3935012,6041518.87674806
373.0039896,6041632.478826738
373.6178223,6041828.847846231
374.2350283,6040281.712315653
374.8556368,6042080.504801938
375.4796772,6041105.857312093
376.1071796,6041643.646180684
376.7381741,6041102.562120614
377.3726913,6041882.53629007
378.0107622,6041428.586627695
378.652418,6041066.544898827
379.2976904,6041623.999116449
379.9466115,6040694.0030932985
380.5992136,6041626.34999047
381.2555296,6041338.550286171
381.9155926,6041493.072549948
382.5794362,6041278.149167603
383.2470943,6041147.883222435
383.9186014,6041240.301752763
384.5939922,6042009.504248528
385.2733019,6040958.73948434
385.9565661,6042008.069173172
386.6438209,6041280.193627872
387.3351027,6041499.457427212
388.0304484,6041619.411634202
388.7298955,6041165.716756637
389.4334817,6041927.856331922
390.1412452,6041747.249681902
390.853225,6041626.744070731
391.56946,6041912.107932944
392.2899901,6041886.728302395
393.0148555,6041440.58046785
393.7440968,6041276.492140093
394.4777551,6033952.830829288
395.2158722,6013780.420833406
395.9584903,5977722.537761993
396.7056521,5924118.088655332
397.457401,5852084.449772223
398.2137806,5763762.516136345
398.9748353,5659782.343229418
399.7406101,5543424.466504736
400.5111505,5431596.897569723
401.2865024,5338432.287018342
402.0667126,5273954.180269345
402.8518283,5244496.443281664
403.6418973,5252113.64332281
404.436968,5291833.119583094
405.2370896,5363304.992003574
406.0423117,5459830.14923032
406.8526847,5568554.470855969
407.66825960000006,5678531.710577448
408.4890879,5779400.158113935
409.3152221,5862294.244505977
410.1467152,5927203.961102468
410.9836208,5975125.0507159885
411.8259934,6007513.658522038
412.673888,6028211.659868312
413.5273605,6038094.686907872
414.38646760000006,6041588.433591197
415.2512664,6041654.090338944
416.1218152,6041589.981204393
416.9981727,6041123.8364016935
417.8803987,6041525.672928474
418.7685535,6041137.723349539
419.6626985,6041307.328797031
420.5628957,6041388.702287648
421.4692081,6040405.077786247
422.3816994,6039257.030868643
423.3004343,6037239.820392247
424.2254783,6034724.137696923
425.1568978,6031924.451458302
426.0947602,6028738.490922042
427.0391337,6025363.76462379
427.9900874,6018913.599344707
428.9476917,6009935.803784513
429.9120175,5996369.507788532
430.8831369,5975738.6668748725
431.8611232,5944125.669728458
432.8460504,5900070.185791528
433.8379937,5839644.83500392
434.8370293,5763191.261556228
435.8432345,5669930.2354929065
436.8566878,5561456.148597786
437.8774686,5440376.317825825
438.9056575,5310898.068619988
439.9413364,5178490.847671079
440.9845882,5046631.054855676
442.035497,4919827.815050012
443.0941482,4801204.418624066
444.1606283,4692023.709616738
445.23502520000005,4593260.646870095
446.317428,4504905.511463773
447.407927,4425746.148225253
448.5066141,4355623.8799435785
449.6135822,4292690.270468397
450.7289258,4237598.727309968
451.85274060000006,4189833.970745397
452.9851239,4150523.493964326
454.1261744,4093581.9033510583
455.2759921,4010784.8752427273
456.4346788,3903939.94392694
457.6023374,3773810.496596859
458.7790727,3620580.6528063416
459.9649909,3443610.775618524
461.1601998,3242069.660846316
462.364809,3014055.6946075168
463.5789295,2812085.406852531
464.8026741000001,2654973.120195072
466.0361575,2542302.412977594
467.2794956999999,2474751.4863486723
468.5328070000001,2456618.8667821204
469.7962111000001,2494082.1455956385
471.0698299,2595430.225493244
472.3537868,2771820.949533484
473.6482074,3002032.4833935923
474.9532192,3272569.611513892
476.2689517,3579903.8156475867
477.5955362,3916192.7419757056
478.93310639999993,4269444.320954563
480.2817979,4625578.205735002
481.6417484,4964544.40598068
483.01309800000007,5264463.232277443
484.3959889,5510067.911423589
485.7905654,5702915.173691639
487.1969743,5846009.768736764
488.6153648,5944352.095779561
490.0458884,6003337.274519586
491.488699,6032508.395133562
492.943953,6041391.224146867
494.4118094,6041742.287632952
495.8924299,6041465.032306089
497.3859785,6041497.979665662
498.8926222,6041344.115823243
500.4125306,6041723.2639626125
501.9458762,6041667.638397473
503.4928341,6041263.241399454
505.0535827,6041543.031025157
506.628303,6035261.629101267
508.2171791999999,6017132.998683081
509.8203986,5983028.972940493
511.4381515,5930885.850386899
513.0706316000001,5857482.234627903
514.7180356,5761906.808576245
516.3805639,5640573.135743985
518.0584200000001,5488507.508924866
519.7518110000001,5314214.039489017
521.4609475999999,5127924.614979431
523.186044,4931490.259379333
524.927318,4728259.638574695
526.6849915,4520566.65249583
528.45929,4311416.733652465
530.2504428000001,4106991.5107824174
532.0586836,3915386.2814214462
533.8842498,3737243.289232554
535.7273833,3575209.6977455597
537.5883299,3432587.377944084
539.46734,3311375.36419201
541.3646685,3214267.737408432
543.2805745000001,3140361.4216457843
545.2153222000001,3088592.4729342726
547.1691801,3056432.5236206343
549.1424218999999,3040872.600171317
551.1353259,3040803.2247654987
553.1481756000001,3055028.4613075224
555.1812597,3084825.421300673
557.2348721,3131691.3895964595
559.3093121,3197301.902140745
561.4048845,3283702.6706695007
563.5218996,3390449.317270794
565.6606737000001,3516037.738671733
567.8215287,3655888.26708307
570.0047927,3804919.0683372105
572.2107997,3956220.17468782
574.4398902,4102025.757768004
576.692411,4237674.440848118
578.9687155,4356699.653281332
581.2691637,4457928.195436183
583.5941226,4540572.505876348
585.943966,4607615.030053931
588.3190752,4662826.320609922
590.7198384999999,4712252.345161477
593.1466518,4760830.824104905
595.5999188999999,4815982.248063684
598.0800512,4883215.9232738735
600.5874682,4964966.396166352
603.1225977000001,5062401.224986983
605.6858758999999,5172032.997886767
608.2777476,5291408.456760892
610.8986664,5416105.583509365
613.549095,5542056.919679053
616.2295054,5662176.05097363
618.940379,5767628.595819387
621.6822068,5853308.257818663
624.4554901,5921554.41605942
627.2607402000001,5971627.958833953
630.0984786,6006648.27188079
632.9692378999999,6029770.68348227
635.8735614,6038519.341715857
638.8120038,6042476.726503572
641.7851312999999,6041516.463326649
644.7935217999999,6043794.703489198
647.8377654,6040547.422756112
650.9184646000001,6041838.962857024
654.0362346,6042271.713832404
657.1917038,6041567.051126992
660.3855139,6040339.63493944
663.6183202999999,6041291.87105115
666.8907926,6041341.63843039
703.1812034,6041331.510317459
704.2110782000001,6034408.143058947
705.2443688999999,6001476.751476896
706.2810885,5926489.240218572
707.3212499,5796553.722529887
708.3648661000001,5602613.269924725
709.41195,5340322.041612587
710.4625143999999,5008270.949836734
711.5165721,4607884.872153019
712.5741357,4156723.900602465
713.6352181,3699867.615380514
714.6998317000001,3275251.7292207074
715.7679891,2913561.1965372404
716.8397027999999,2638610.145425174
717.9149852,2463083.3367133485
718.9938487000001,2392333.2506083185
720.0763055,2424636.5527081685
721.162368,2544390.2984507373
722.2520481,2720876.6189036896
723.3453581,2924573.507941234
724.4423098,3130931.83119498
725.5429153,3319571.053113372
726.6471863,3477423.115269578
727.7551346,3597095.198525487
728.866772,3677540.313457483
729.9821099,3721703.684980215
731.1011599,3734003.150441658
732.2239335,3720256.9032198233
733.3504419,3685912.0449722833
734.4806963999999,3635004.723145312
735.6147081,3571533.822726118
736.7524882,3498804.204572731
737.8940474,3419158.277133293
739.0393967,3340101.289983452
740.1885467999999,3271222.9146600426
741.3415084,3227182.6808242938
742.498292,3227320.2178914286
743.658908,3287084.185999661
744.8233667999999,3408783.056766678
745.9916785,3594192.794851364
747.1638532000001,3840141.101026168
748.3399009,4138010.865734168
749.5198315,4471896.625601148
750.7036546,4816154.960030578
751.89138,5135017.870853708
753.0830171,5406252.302718901
754.2785752999999,5627369.349020484
755.4780638,5798713.242807322
756.6814917,5920140.045404918
757.8888678999999,5994846.022156414
759.1002014999999,6031277.724336399
760.3155009,6041422.540877156
761.5347749,6041456.116721397
762.7580318,6041363.412736865
763.98528,6041286.075991209
765.2165276000001,6041626.161114726
766.4517825,6041364.2464734325
767.6910527000001,6041606.193474527
768.9343458999999,6041345.548343788
770.1816697,6041270.78928163
771.4330313999999,6041344.87657087
772.6884382999999,6041528.459953505
773.9478975,6041371.111006471
775.211416,6041768.571698408
776.4790005,6041688.286063748
777.7506578,6041419.630934094
779.0263942,6041108.582573384
780.3062162,6041236.293611111
781.5901297,6041015.763583353
782.8781409,6041687.667570801
784.1702554999999,6041695.519285145
785.4664793,6041842.932652517
786.7668176,6041017.010751676
788.0712758,6041178.356482808
789.3798591,6041251.283727039
790.6925722999999,6041311.861557088
792.0094204,6041393.884977872
793.3304079,6041290.985439526
794.6555392000001,6041472.729320486
795.9848187000001,6041567.287435471
797.3182504,6041163.7793804975
798.6558382999999,6041579.083554664
799.9975861,6041014.559745517
801.3434973,6041133.152911719
802.6935752999999,6041374.299341513
804.0478232999999,6041627.707916914
805.4062443,6041267.702490067
806.7688411,6041746.7636660775
808.1356164,6041317.968144717
809.5065726,6041197.777924172
810.881712,6037544.896481733
812.2610367000001,6028394.59190735
813.6445485,6014816.900926956
815.0322493,5998248.768784817
816.4241404,5982416.504881337
817.8202233,5967149.80877832
819.2204991,5951036.45936847
820.6249687999999,5934797.686519957
822.0336331,5927062.981777205
823.4464925999999,5929779.4752374
824.8635477000001,5942045.484309628
826.2847987,5958121.960509658
827.7102456,5973461.706609474
829.1398882,5989882.647950089
830.5737261,6005201.513707697
832.0117589,6021290.13786632
833.4539857000001,6033398.097096953
834.9004057999999,6039936.180928725
836.3510179,6041890.608300451
837.8058209,6041188.413779288
839.2648132999999,6041467.879739725
840.7279934000001,6041280.521402918
842.1953594,6041140.164031638
843.6669092,6041515.730522771
845.1426408,6041428.60068933
846.6225517000001,6041310.586533397
848.1066392999999,6041520.939658328
849.5949009999999,6041297.197510527
851.0873337999999,6041161.849240896
852.5839347000001,6041478.900197905
854.0847002999999,6041287.716090117
855.5896273,6041251.319928652
857.0987119999999,6041367.33564489
858.6119507000001,6041499.11833986
860.1293393999999,6041329.139505252
861.650874,6041459.402341343
863.1765502000001,6041490.657432567
864.7063635,6041257.659023435
866.2403094,6041336.348469251
867.778383,6041149.03002128
869.3205793999999,6041839.850766764
870.8668935000001,6041288.739347925
872.4173199999999,6041183.783607182
873.9718536,6041532.002847607
875.5304886,6041386.940272795
877.0932193,6041328.881488076
878.6600399,6041058.234669288
880.2309443,6041762.417351128
881.8059264000001,6041203.312318431
883.3849798,6041418.003360568
884.9680981,6041429.322478843
886.5552747000002,6041397.31540148
888.1465029,6041060.210288429
889.7417757000001,6041264.359633659
891.3410862,6041602.531741967
892.9444273,6041232.975990633
894.5517916000001,6041555.92160339
896.1631719000001,6041299.317566822
897.7785605,6041622.802593856
899.3979498,6041630.69443692
901.0213321,6041283.673450068
902.6486995,6041479.290664049
904.280044,6041292.442164497
905.9153575,6041270.44394296
907.5546319,6041050.794765208
909.1978586,6041153.945523327
910.8450295,6041256.961517931
912.4961358,6041027.299609391
914.1511691,6041785.9786400935
915.8101205,6041537.5595049225
917.4729813,6041242.926993521
919.1397426,6041077.478600496
920.8103953,6041337.505155128
922.4849303,6041133.543975286
924.1633386,6041576.44108139
925.8456109,6041554.54729999
927.5317378,6041214.256195001
929.22171,6041894.412019456
930.9155179,6041482.448954918
932.6131521,6041583.984047699
934.3146028,6041736.247791188
936.0198606,6041440.082229637
937.7289155,6041409.849225984
939.4417579,6041478.336114589
941.1583779,6041314.983901771
942.8787656,6041395.1008411925
944.6029109,6041840.892728483
946.3308041,6041876.075752604
948.0624349,6040986.72776355
949.7977933,6041480.451556994
951.5368692,6041445.860766117
953.2796523,6041193.790342455
955.0261327,6041281.1139344815
956.7762999,6041352.118376207
958.5301437,6041402.989568533
960.2876539,6041168.233986389
962.0488201,6041106.01089034
963.813632,6041381.707818882
965.5820793,6040956.1186445085
967.3541517,6041766.752679353
969.1298386,6041809.955394045
970.9091298,6040680.684005692
972.6920149,6042111.601190719
974.4784835,6040792.893440379
976.2685251,6041733.956126005
978.0621293,6041590.435390086
979.8592859,6042133.465484602
981.6599843,6042873.602297604
983.4642142,6041213.157967523
985.2719651,6040836.4467942575
987.0832269,6040873.194806333
988.897989,6040841.138829352
990.7162412,6041645.679377751
992.5379731,6041289.37266297
994.3631745,6041552.363521826
996.191835,6031455.916302208
998.0239445,6001213.5884593325
999.8594926,5942307.909043522
1001.698469,5846733.8667527065
1003.540864,5707560.284899212
1005.386668,5522361.6056684535
1007.235869,5285556.154156412
1009.088458,4995908.391635535
1010.944426,4669098.888067725
1012.803762,4326423.245774676
1014.666456,3984820.096130318
1016.532498,3657840.0516418833
1018.401878,3356337.299297148
1020.274588,3091008.3925567083
1022.150616,2866481.986331553
1024.029953,2687686.6733198487
1025.912591,2545569.553534901
1027.798518,2433091.422565682
1029.687726,2340000.9985964247
1031.580205,2259862.4810585207
1033.475945,2183585.1058121133
1035.3749380000002,2107749.907593725
1037.277175,2028780.953520708
1039.182645,1942645.3150049704
1041.09134,1850905.153987476
1043.003251,1752263.8371960246
1044.918368,1648720.01310298
1046.836683,1541831.0127302962
1048.758188,1434952.265840348
1050.682872,1328869.946519811
1052.610728,1226942.3993354845
1054.541747,1132380.159601252
1056.4759210000002,1044806.0206476344
1058.41324,966826.7752076852
1060.353697,897870.1805388415
1062.297282,837964.6889393901
1064.243989,785584.795399283
1066.193809,741325.6278458548
1068.146734,703964.5906869301
1070.102755,670864.5047357813
1072.061865,641802.6148313585
1074.024056,615294.2940189933
1075.989321,590406.671789814
1077.957651,566059.7307356157
1079.92904,542356.2179932783
1081.9034800000002,518507.8847868306
1083.880963,493817.5933955719
1085.861482,469875.9860790502
1087.8450300000002,446496.0053174853
1089.8316,422639.9163826367
1091.821185,400769.2545503244
1093.8137789999998,379901.84814366815
1095.809373,360343.3140932901
1097.807962,341783.01874921826
1099.809539,325250.5982988232
1101.814098,310652.18691938143
1103.821631,297396.6705832861
1105.832134,285578.9999922994
1107.845599,275461.12799395283
1109.86202,266508.4243037332
1111.881392,258712.15499741075
1113.903708,251345.80207787163
1115.928963,245037.40914595497
1117.95715,238888.33559601448
1119.988266,232735.31006177596
1122.022303,226328.7901872597
1124.059256,219348.72089459345
1126.09912,212541.5018875947
1128.14189,205019.6022342709
1130.187561,197205.0203854668
1132.236128,188992.34282592204
1134.287585,180442.53598648915
1136.341929,172198.97541633062
1138.3991529999998,163901.43355782225
1140.459254,155589.14701926356
1142.522228,147631.50257439114
