wave,flux
306.2504509,112.66240962712118
306.5604242,186.66975297754223
306.871524,293.20100957301264
307.18375710000004,420.6667135579989
307.4971302,591.4763519143055
307.8116501,797.1201587569279
308.1273236,938.0454277728774
308.4441577,1103.0896002419668
308.7621594,1287.3666779142932
309.0813356,1493.97725104057
309.4016935,1720.3912222075392
309.7232403,1970.5377881148568
310.04598300000004,2236.825015541757
310.369929,2531.90249355854
310.6950856,2844.902782793633
311.0214601,3182.3109224125824
311.34906010000003,3538.0575041659527
311.6778931,3920.157580637304
312.0079665,4332.698761032631
312.33928810000003,4774.393902696093
312.6718655,5237.9124697689
313.00570639999995,5733.379973126368
313.3408189,6240.318821926566
313.6772106,6785.207146998572
314.0148896,7346.871638921964
314.3538639,7935.3028884860605
314.6941415,8553.331763404372
315.0357308,9184.167774533971
315.37863980000003,9839.346025947092
315.7228769,10512.010629041368
316.0684504,11219.932972592258
316.4153688,11922.00839279002
316.76364069999994,12649.216664794769
317.1132746,13405.120935352425
317.4642791,14182.026830484228
317.8166631,14963.243512826368
318.1704352,15755.11704432099
318.5256045,16570.994613744057
318.8821799,17400.991858876245
319.2401704,18239.974347645744
319.5995851,19103.564565871184
319.96043330000003,19966.404040347606
320.3227243,20824.306573422866
320.6864673,21719.301241757617
321.0516719,22662.83088789729
321.4183476,23587.88664559001
321.786504,24544.38304301558
322.1561508,25526.56718081228
322.5272977,26570.415244828742
322.8999548,27642.828743195176
323.2741319,28762.59356927669
323.649839,29939.34506840293
324.0270864,31126.386210531764
324.40588419999995,32414.211422581844
324.7862428,33750.87163477255
325.16817260000005,35180.422307919296
325.5516841,36599.50328532064
325.9367879,38117.81884776923
326.32349480000005,39650.22315513556
326.7118154,41243.508505233214
327.1017607,42876.93997111994
327.4933418,44565.87672041482
327.88656960000003,46307.32654910592
328.2814555,48078.48861890638
328.6780106,49936.21640970487
329.0762465,51837.66769488631
329.47617460000004,53837.95979426072
329.8778065,55926.9603097855
330.281154,58063.492697695656
330.6862289,60299.78489632278
331.0930432,62622.834475763135
331.5016088,65106.8599962833
331.911938,67752.22160822646
332.32404310000004,70551.21910823934
332.7379364,73591.97764339151
333.1536305,76830.11495256482
333.571138,80341.27897862003
333.9904716,84256.03545881598
334.4116443,88566.15746321659
334.834669,93280.14842412372
335.2595588,98573.25195123984
335.686327,104554.16942328004
336.114987,111371.55905721674
336.5455522,119144.73128993608
336.9780363,128049.07520931092
337.41245310000005,138373.27081947704
337.8488164,150238.19746192865
338.28714019999995,163844.6811798736
338.7274388,179324.2147269955
339.1697264,196975.1667299113
339.6140175,216790.35237384465
340.06032660000005,239093.85608887492
340.5086685,264084.261716352
340.959058,291670.2363571229
341.4115102,322277.2864209066
341.8660403,356016.6579398121
342.32266339999995,393267.68623963225
342.7813952,433896.99619525584
343.24225110000003,478221.0613930499
343.70524710000007,526514.8244628425
344.17039889999995,578716.9821480815
344.6377228,634749.5261056618
345.1072349,694691.9895319801
345.5789517,758460.7412025433
346.0528897,825511.2313267781
346.5290657,895610.7592532791
347.0074967,968422.0046983002
347.48819960000003,1043648.5145317138
347.9711917,1120929.7980600577
348.45649060000005,1199519.6959456373
348.9441137,1279311.8326918008
349.434079,1359716.860371268
349.9264043,1440907.5649710165
350.4211078,1521803.4197113132
350.9182079,1602704.303994627
351.4177232,1682706.485608932
351.9196722,1761984.132517932
352.42407410000004,1839570.9571304028
352.9309478,1915555.329191584
353.4403127,1989186.3358617527
353.95218839999995,2060116.0940636883
354.4665945,2127528.1444312744
354.983551,2191458.4605340566
355.503078,2251367.7544145905
356.025196,2306700.754913878
356.5499253,2357554.4915441955
357.077287,2403188.7312395447
357.6073018,2444058.26467894
358.1399912,2479624.296440355
358.6753765,2510069.4932128484
359.2134795,2535080.611890611
359.754322,2554776.967015933
360.2979263,2569319.802763324
360.8443147,2578670.748186574
361.3935098,2582938.551315884
361.9455346,2582763.192742023
362.5004122,2578289.695952709
363.058166,2570155.734739872
363.61881960000005,2558679.8499363638
364.1823969,2545044.608250446
364.7489221,2530598.10298989
365.3184196,2516266.5226361686
365.8909141,2502138.91139686
366.4664305,2489865.677291173
367.0449943,2479872.7236733944
367.6266307,2472376.2437425987
368.2113658,2467696.859426951
368.7992255,2465281.521008092
369.3902363,2464984.0859538303
369.9844249,2466112.150247158
370.5818182,2467101.7726959167
371.1824436,2467617.87382416
371.7863286000001,2466932.1234884374
372.3935012,2464320.5452245465
373.0039896,2459401.2912982595
373.6178223,2452125.8238943364
374.2350283,2443732.151264242
374.8556368,2435829.777857535
375.4796772,2428400.5188288298
376.1071796,2424118.411178505
376.7381741,2425087.7807086925
377.3726913,2433633.050068351
378.0107622,2451562.602610143
378.652418,2480998.8246014654
379.2976904,2523746.099627631
379.9466115,2580246.83941734
380.5992136,2651801.125617878
381.2555296,2738388.4048477374
381.9155926,2839044.4464741163
382.5794362,2951146.0080926544
383.2470943,3073278.083204493
383.9186014,3201758.2872422086
384.5939922,3333282.072743608
385.2733019,3464008.7867905856
385.9565661,3591314.099035184
386.6438209,3711814.435111436
387.3351027,3824104.899244994
388.0304484,3928039.748430114
388.7298955,4025490.6449233694
389.4334817,4116864.0587070426
390.1412452,4205509.905886971
390.853225,4296216.545497603
391.56946,4391432.456863558
392.2899901,4494465.790685642
393.0148555,4605058.318125764
393.7440968,4723825.398512666
394.4777551,4847535.261176675
395.2158722,4974535.775917627
395.9584903,5102596.255635167
396.7056521,5225827.117864238
397.457401,5341629.898521514
398.2137806,5448736.935027575
398.9748353,5546491.914048627
399.7406101,5633824.7547322735
400.5111505,5711093.653502838
401.2865024,5779776.46137445
402.0667126,5838931.811233245
402.8518283,5890564.594226508
403.6418973,5934288.356177527
404.436968,5968048.71450686
405.2370896,5994946.984050221
406.0423117,6013715.164925655
406.8526847,6027555.173818577
407.66825960000006,6036052.492950376
408.4890879,6039504.027855245
409.3152221,6041262.593276188
410.1467152,6041173.861287718
410.9836208,6041511.398197485
411.8259934,6041396.361752839
412.673888,6041189.466353775
413.5273605,6041404.011148789
414.38646760000006,6041573.772167723
415.2512664,6041171.612055913
416.1218152,6041210.291052918
416.9981727,6041308.976673669
417.8803987,6041167.075497661
418.7685535,6041668.6559116375
419.6626985,6041381.327870633
420.5628957,6041590.981095227
421.4692081,6040804.653272793
422.3816994,6040954.424094212
423.3004343,6041361.72948259
424.2254783,6041479.875564688
425.1568978,6041330.9886545725
426.0947602,6041560.2109115375
427.0391337,6041140.147608442
427.9900874,6041385.64413406
428.9476917,6041406.834953496
429.9120175,6041453.994366587
430.8831369,6041870.9259408135
431.8611232,6041239.655891493
432.8460504,6041507.791196037
433.8379937,6041584.030485052
434.8370293,6041650.847883398
435.8432345,6041397.664986044
436.8566878,6041086.957452066
437.8774686,6041693.56082229
438.9056575,6041314.655524236
439.9413364,6041451.40255117
440.9845882,6041697.190579047
442.035497,6041392.125094282
443.0941482,6041500.855387528
444.1606283,6041227.298760667
445.23502520000005,6041211.833221675
446.317428,6042001.325429942
447.407927,6040934.610531978
448.5066141,6041586.996869735
449.6135822,6041191.05721615
450.7289258,6041400.962909538
451.85274060000006,6041528.924589235
452.9851239,6041256.245033375
454.1261744,6041163.396676714
455.2759921,6041525.032069217
456.4346788,6041703.031347336
457.6023374,6041465.620740444
458.7790727,6041469.733911128
459.9649909,6041485.084282657
461.1601998,6041446.18711002
462.364809,6041018.5833870815
463.5789295,6041517.504800834
464.8026741000001,6041591.892803738
466.0361575,6041484.993449492
467.2794956999999,6041243.50300652
468.5328070000001,6041246.971675428
469.7962111000001,6041738.683280693
471.0698299,6041465.122399004
472.3537868,6041499.804378795
473.6482074,6041298.856041092
474.9532192,6041730.707371669
476.2689517,6041534.719479625
477.5955362,6041545.046963394
478.93310639999993,6040949.518511125
480.2817979,6041685.041645562
481.6417484,6041337.421657619
483.01309800000007,6041311.042077166
484.3959889,6041166.257595254
485.7905654,6041113.2047274
487.1969743,6041095.201574872
488.6153648,6040964.7642878825
490.0458884,6041519.091894481
491.488699,6041612.165210981
492.943953,6041403.965747488
494.4118094,6041455.171749272
495.8924299,6041449.808145254
497.3859785,6041473.274344571
498.8926222,6040934.026891013
500.4125306,6041149.623782719
501.9458762,6041178.681118004
503.4928341,6041005.42268666
505.0535827,6041214.832030633
506.628303,6041346.70667658
508.2171791999999,6041535.107065334
509.8203986,6040978.486877639
511.4381515,6041570.195277592
513.0706316000001,6041376.931917094
514.7180356,6041465.018265891
516.3805639,6041107.878072708
518.0584200000001,6042129.036006306
519.7518110000001,6041333.580951032
521.4609475999999,6041237.276987363
523.186044,6041737.169585152
524.927318,6041383.160977794
526.6849915,6041418.081832467
528.45929,6041351.737037105
530.2504428000001,6041443.333154833
532.0586836,6042096.350091407
533.8842498,6041399.391385882
535.7273833,6041568.502032074
537.5883299,6041396.883035082
539.46734,6041697.700280831
541.3646685,6041591.589456483
543.2805745000001,6041571.182503492
545.2153222000001,6041649.278944966
547.1691801,6041704.524633125
549.1424218999999,6041023.111403744
551.1353259,6041444.356123804
553.1481756000001,6041231.215019587
555.1812597,6041982.244179734
557.2348721,6041345.469396201
559.3093121,6041462.688895299
561.4048845,6041513.789399577
563.5218996,6041341.277715217
565.6606737000001,6041591.149752118
567.8215287,6041512.641806156
570.0047927,6041476.035735955
572.2107997,6041085.503400512
574.4398902,6041495.562028069
576.692411,6041622.30126908
578.9687155,6041359.976825507
581.2691637,6042102.428545413
583.5941226,6041605.549138081
585.943966,6041425.38734451
588.3190752,6041733.815110485
590.7198384999999,6041185.125958924
593.1466518,6041280.722289387
595.5999188999999,6041413.277237483
598.0800512,6041449.659115608
600.5874682,6041216.419348178
603.1225977000001,6041661.65880033
605.6858758999999,6041501.809842798
608.2777476,6041138.478972248
610.8986664,6041454.000785511
613.549095,6041173.889387016
616.2295054,6041779.32196213
618.940379,6042165.648586289
621.6822068,6041704.178030527
624.4554901,6041971.134881263
627.2607402000001,6041361.357641539
630.0984786,6041011.472839423
632.9692378999999,6040787.015474022
635.8735614,6041046.407905355
638.8120038,6042388.614083277
641.7851312999999,6041043.212840486
644.7935217999999,6042172.935299184
647.8377654,6042183.64851431
650.9184646000001,6041362.303597436
703.1812034,6041331.510317459
704.2110782000001,6034408.143058947
705.2443688999999,6001476.751476896
706.2810885,5926489.240218572
707.3212499,5796553.722529887
708.3648661000001,5602613.269924725
709.41195,5340322.041612587
710.4625143999999,5008270.949836734
711.5165721,4607884.872153019
712.5741357,4156723.900602465
713.6352181,3699867.615380514
714.6998317000001,3275251.7292207074
715.7679891,2913561.1965372404
716.8397027999999,2638610.145425174
717.9149852,2463083.3367133485
718.9938487000001,2392333.2506083185
720.0763055,2424636.5527081685
721.162368,2544390.2984507373
722.2520481,2720876.6189036896
723.3453581,2924573.507941234
724.4423098,3130931.83119498
725.5429153,3319571.053113372
726.6471863,3477423.115269578
727.7551346,3597095.198525487
728.866772,3677540.313457483
729.9821099,3721703.684980215
731.1011599,3734003.150441658
732.2239335,3720256.9032198233
733.3504419,3685912.0449722833
734.4806963999999,3635004.723145312
735.6147081,3571533.822726118
736.7524882,3498804.204572731
737.8940474,3419158.277133293
739.0393967,3340101.289983452
740.1885467999999,3271222.9146600426
741.3415084,3227182.6808242938
742.498292,3227320.2178914286
743.658908,3287084.185999661
744.8233667999999,3408783.056766678
745.9916785,3594192.794851364
747.1638532000001,3840141.101026168
748.3399009,4138010.865734168
749.5198315,4471896.625601148
750.7036546,4816154.960030578
751.89138,5135017.870853708
753.0830171,5406252.302718901
754.2785752999999,5627369.349020484
755.4780638,5798713.242807322
756.6814917,5920140.045404918
757.8888678999999,5994846.022156414
759.1002014999999,6031277.724336399
760.3155009,6041422.540877156
761.5347749,6041456.116721397
762.7580318,6041363.412736865
763.98528,6041286.075991209
765.2165276000001,6041626.161114726
766.4517825,6041364.2464734325
767.6910527000001,6041606.193474527
768.9343458999999,6041345.548343788
770.1816697,6041270.78928163
771.4330313999999,6041344.87657087
772.6884382999999,6041528.459953505
773.9478975,6041371.111006471
775.211416,6041768.571698408
776.4790005,6041688.286063748
777.7506578,6041419.630934094
779.0263942,6041108.582573384
780.3062162,6041236.293611111
781.5901297,6041015.763583353
782.8781409,6041687.667570801
784.1702554999999,6041695.519285145
785.4664793,6041842.932652517
786.7668176,6041017.010751676
788.0712758,6041178.356482808
789.3798591,6041251.283727039
790.6925722999999,6041311.861557088
792.0094204,6041393.884977872
793.3304079,6041290.985439526
794.6555392000001,6041472.729320486
795.9848187000001,6041567.287435471
797.3182504,6041163.7793804975
798.6558382999999,6041579.083554664
799.9975861,6041014.559745517
801.3434973,6041133.152911719
802.6935752999999,6041374.299341513
804.0478232999999,6041627.707916914
805.4062443,6041267.702490067
806.7688411,6041746.7636660775
808.1356164,6041317.968144717
809.5065726,6041197.777924172
810.881712,6037544.896481733
812.2610367000001,6028394.59190735
813.6445485,6014816.900926956
815.0322493,5998248.768784817
816.4241404,5982416.504881337
817.8202233,5967149.80877832
819.2204991,5951036.45936847
820.6249687999999,5934797.686519957
822.0336331,5927062.981777205
823.4464925999999,5929779.4752374
824.8635477000001,5942045.484309628
826.2847987,5958121.960509658
827.7102456,5973461.706609474
829.1398882,5989882.647950089
830.5737261,6005201.513707697
832.0117589,6021290.13786632
833.4539857000001,6033398.097096953
834.9004057999999,6039936.180928725
836.3510179,6041890.608300451
837.8058209,6041188.413779288
839.2648132999999,6041467.879739725
840.7279934000001,6041280.521402918
842.1953594,6041140.164031638
843.6669092,6041515.730522771
845.1426408,6041428.60068933
846.6225517000001,6041310.586533397
848.1066392999999,6041520.939658328
849.5949009999999,6041297.197510527
851.0873337999999,6041161.849240896
852.5839347000001,6041478.900197905
854.0847002999999,6041287.716090117
855.5896273,6041251.319928652
857.0987119999999,6041367.33564489
858.6119507000001,6041499.11833986
860.1293393999999,6041329.139505252
861.650874,6041459.402341343
863.1765502000001,6041490.657432567
864.7063635,6041257.659023435
866.2403094,6041336.348469251
867.778383,6041149.03002128
869.3205793999999,6041839.850766764
870.8668935000001,6041288.739347925
872.4173199999999,6041183.783607182
873.9718536,6041532.002847607
875.5304886,6041386.940272795
877.0932193,6041328.881488076
878.6600399,6041058.234669288
880.2309443,6041762.417351128
881.8059264000001,6041203.312318431
883.3849798,6041418.003360568
884.9680981,6041429.322478843
886.5552747000002,6041397.31540148
888.1465029,6041060.210288429
889.7417757000001,6041264.359633659
891.3410862,6041602.531741967
892.9444273,6041232.975990633
894.5517916000001,6041555.92160339
896.1631719000001,6041299.317566822
897.7785605,6041622.802593856
899.3979498,6041630.69443692
901.0213321,6041283.673450068
902.6486995,6041479.290664049
904.280044,6041292.442164497
905.9153575,6041270.44394296
907.5546319,6041050.794765208
909.1978586,6041153.945523327
910.8450295,6041256.961517931
912.4961358,6041027.299609391
914.1511691,6041785.9786400935
915.8101205,6041537.5595049225
917.4729813,6041242.926993521
919.1397426,6041077.478600496
920.8103953,6041337.505155128
922.4849303,6041133.543975286
924.1633386,6041576.44108139
925.8456109,6041554.54729999
927.5317378,6041214.256195001
929.22171,6041894.412019456
930.9155179,6041482.448954918
932.6131521,6041583.984047699
934.3146028,6041736.247791188
936.0198606,6041440.082229637
937.7289155,6041409.849225984
939.4417579,6041478.336114589
941.1583779,6041314.983901771
942.8787656,6041395.1008411925
944.6029109,6041840.892728483
946.3308041,6041876.075752604
948.0624349,6040986.72776355
949.7977933,6041480.451556994
951.5368692,6041445.860766117
953.2796523,6041193.790342455
955.0261327,6041281.1139344815
956.7762999,6041352.118376207
958.5301437,6041402.989568533
960.2876539,6041168.233986389
962.0488201,6041106.01089034
963.813632,6041381.707818882
965.5820793,6040956.1186445085
967.3541517,6041766.752679353
969.1298386,6041809.955394045
970.9091298,6040680.684005692
972.6920149,6042111.601190719
974.4784835,6040792.893440379
976.2685251,6041733.956126005
978.0621293,6041590.435390086
979.8592859,6042133.465484602
981.6599843,6042873.602297604
983.4642142,6041213.157967523
985.2719651,6040836.4467942575
987.0832269,6040873.194806333
988.897989,6040841.138829352
990.7162412,6041645.679377751
992.5379731,6041289.37266297
994.3631745,6041552.363521826
996.191835,6031455.916302208
998.0239445,6001213.5884593325
999.8594926,5942307.909043522
1001.698469,5846733.8667527065
1003.540864,5707560.284899212
1005.386668,5522361.6056684535
1007.235869,5285556.154156412
1009.088458,4995908.391635535
1010.944426,4669098.888067725
1012.803762,4326423.245774676
1014.666456,3984820.096130318
1016.532498,3657840.0516418833
1018.401878,3356337.299297148
1020.274588,3091008.3925567083
1022.150616,2866481.986331553
1024.029953,2687686.6733198487
1025.912591,2545569.553534901
1027.798518,2433091.422565682
1029.687726,2340000.9985964247
1031.580205,2259862.4810585207
1033.475945,2183585.1058121133
1035.3749380000002,2107749.907593725
1037.277175,2028780.953520708
1039.182645,1942645.3150049704
1041.09134,1850905.153987476
1043.003251,1752263.8371960246
1044.918368,1648720.01310298
1046.836683,1541831.0127302962
1048.758188,1434952.265840348
1050.682872,1328869.946519811
1052.610728,1226942.3993354845
1054.541747,1132380.159601252
1056.4759210000002,1044806.0206476344
1058.41324,966826.7752076852
1060.353697,897870.1805388415
1062.297282,837964.6889393901
1064.243989,785584.795399283
1066.193809,741325.6278458548
1068.146734,703964.5906869301
1070.102755,670864.5047357813
1072.061865,641802.6148313585
1074.024056,615294.2940189933
1075.989321,590406.671789814
1077.957651,566059.7307356157
1079.92904,542356.2179932783
1081.9034800000002,518507.8847868306
1083.880963,493817.5933955719
1085.861482,469875.9860790502
1087.8450300000002,446496.0053174853
1089.8316,422639.9163826367
1091.821185,400769.2545503244
1093.8137789999998,379901.84814366815
1095.809373,360343.3140932901
1097.807962,341783.01874921826
1099.809539,325250.5982988232
1101.814098,310652.18691938143
1103.821631,297396.6705832861
1105.832134,285578.9999922994
1107.845599,275461.12799395283
1109.86202,266508.4243037332
1111.881392,258712.15499741075
1113.903708,251345.80207787163
1115.928963,245037.40914595497
1117.95715,238888.33559601448
1119.988266,232735.31006177596
1122.022303,226328.7901872597
1124.059256,219348.72089459345
1126.09912,212541.5018875947
1128.14189,205019.6022342709
1130.187561,197205.0203854668
1132.236128,188992.34282592204
1134.287585,180442.53598648915
1136.341929,172198.97541633062
1138.3991529999998,163901.43355782225
1140.459254,155589.14701926356
1142.522228,147631.50257439114
1144.588069,140017.6072228972
1146.6567730000002,132604.9878781259
1148.728337,125664.53389932936
1150.802756,118926.77871582856
