wave,flux
306.2504509,2671.261273357517
306.5604242,3793.309107519971
306.871524,5017.191951235937
307.18375710000004,6400.757905661537
307.4971302,7909.154747297336
307.8116501,9557.910406613695
308.1273236,10122.343987473
308.4441577,10733.666916258602
308.7621594,11352.701683192214
309.0813356,12008.464124321765
309.4016935,12721.554326075016
309.7232403,13453.13705302981
310.04598300000004,14217.814213783362
310.369929,15002.473959516705
310.6950856,15819.185003258945
311.0214601,16669.427619080318
311.34906010000003,17534.71380648386
311.6778931,18469.448799736696
312.0079665,19347.997286505637
312.33928810000003,20320.43554299313
312.6718655,21298.15025529589
313.00570639999995,22322.973909165477
313.3408189,23387.38160290273
313.6772106,24479.94395691183
314.0148896,25593.503825395383
314.3538639,26755.84323111784
314.6941415,27966.928719328436
315.0357308,29256.345509002764
315.37863980000003,30592.57594321184
315.7228769,32038.589695208582
316.0684504,33543.410375430205
316.4153688,35111.740164810784
316.76364069999994,36780.54978070642
317.1132746,38484.28580271648
317.4642791,40298.72469717386
317.8166631,42260.3796497871
318.1704352,44181.012215318486
318.5256045,46228.46589594287
318.8821799,48303.90464326334
319.2401704,50450.8809165748
319.5995851,52559.55118034496
319.96043330000003,54762.57499641703
320.3227243,56928.98722069352
320.6864673,59110.57523592999
321.0516719,61305.024519580045
321.4183476,63582.08947626704
321.786504,65821.05723525111
322.1561508,68180.48530076689
322.5272977,70488.14297609692
322.8999548,72897.08781200925
323.2741319,75431.52115898918
323.649839,78285.08891972082
324.0270864,81319.48435870289
324.40588419999995,84556.86782302831
324.7862428,88248.97144419521
325.16817260000005,92371.78523581813
325.5516841,97060.71314602147
325.9367879,102485.99292776312
326.32349480000005,108586.807821116
326.7118154,115702.9540729593
327.1017607,124265.983700176
327.4933418,133947.24242023306
327.88656960000003,145596.14672469517
328.2814555,159287.31721341753
328.6780106,175179.3368741575
329.0762465,193911.7310527173
329.47617460000004,215635.06275523783
329.8778065,240565.5305596313
330.281154,269366.7899528821
330.6862289,301781.4263073327
331.0930432,338142.86761282873
331.5016088,378618.92950599466
331.911938,422910.9185884979
332.32404310000004,470899.0191310494
332.7379364,522385.3969846356
333.1536305,576806.2710684739
333.571138,633514.538280558
333.9904716,692440.3299374299
334.4116443,752518.3572695217
334.834669,813356.0944583353
335.2595588,874039.4778312211
335.686327,934402.9861999496
336.114987,993879.7687866671
336.5455522,1051753.666867268
336.9780363,1107741.2841354143
337.41245310000005,1161825.8897582777
337.8488164,1213148.8278300124
338.28714019999995,1262339.8557978144
338.7274388,1308629.1368299734
339.1697264,1352534.9156829591
339.6140175,1393811.5632020694
340.06032660000005,1433008.2016842212
340.5086685,1470449.3295953474
340.959058,1506894.4036738626
341.4115102,1543009.4384179702
341.8660403,1579577.1845356422
342.32266339999995,1618116.0096046762
342.7813952,1658520.4586415405
343.24225110000003,1702399.984380184
343.70524710000007,1750037.031818567
344.17039889999995,1801730.150236697
344.6377228,1857736.0611390497
345.1072349,1918246.380262787
345.5789517,1982031.716201353
346.0528897,2048932.7526729887
346.5290657,2117475.857877656
347.0074967,2187513.630618051
347.48819960000003,2256696.793005592
347.9711917,2325196.962890327
348.45649060000005,2391053.550595732
348.9441137,2453291.9791865274
349.434079,2512171.1201952463
349.9264043,2565963.216100729
350.4211078,2615101.2270338647
350.9182079,2659059.954411752
351.4177232,2698601.6392280613
351.9196722,2733541.739287856
352.42407410000004,2764854.239764083
352.9309478,2792944.380904059
353.4403127,2818761.667385329
353.95218839999995,2843142.1641822117
354.4665945,2867592.426199675
354.983551,2891790.4042589217
355.503078,2917588.124363417
356.025196,2944325.213928256
356.5499253,2972986.917839044
357.077287,3002934.930603192
357.6073018,3034003.748022835
358.1399912,3065201.68736311
358.6753765,3096285.480446474
359.2134795,3125411.35678311
359.754322,3151470.65855453
360.2979263,3174887.775396717
360.8443147,3193811.356141521
361.3935098,3208720.6417321367
361.9455346,3219813.4245076617
362.5004122,3226767.814008054
363.058166,3231852.055570485
363.61881960000005,3236942.725074605
364.1823969,3242721.309926952
364.7489221,3253316.3614774374
365.3184196,3270348.081582164
365.8909141,3295943.762220106
366.4664305,3332570.0360732256
367.0449943,3381443.1245373576
367.6266307,3443111.163390032
368.2113658,3517342.229165183
368.7992255,3600952.8411811264
369.3902363,3691681.731613314
369.9844249,3785172.720922788
370.5818182,3875677.672413197
371.1824436,3957393.486309912
371.7863286000001,4026122.782541581
372.3935012,4076045.6272762464
373.0039896,4104678.410150018
373.6178223,4110376.5702291
374.2350283,4092725.9982508463
374.8556368,4055256.133980977
375.4796772,4000767.1417087633
376.1071796,3934948.58081692
376.7381741,3863637.604942448
377.3726913,3792494.145555504
378.0107622,3726310.066584657
378.652418,3669692.288385241
379.2976904,3626727.229134908
379.9466115,3599025.6737046414
380.5992136,3587506.237428836
381.2555296,3593065.916022091
381.9155926,3615536.0855323095
382.5794362,3653870.501724387
383.2470943,3707087.189752589
383.9186014,3775552.1770835686
384.5939922,3857541.760946813
385.2733019,3953290.701885498
385.9565661,4059907.032818803
386.6438209,4178355.176232144
387.3351027,4305674.835667593
388.0304484,4440483.067382908
388.7298955,4581274.710929508
389.4334817,4725650.956389969
390.1412452,4872387.723839652
390.853225,5020425.382033418
391.56946,5166411.963990731
392.2899901,5305920.111203762
393.0148555,5439604.866726655
393.7440968,5562252.146211152
394.4777551,5674020.472556357
395.2158722,5770767.423603138
395.9584903,5851497.852238105
396.7056521,5914735.210540799
397.457401,5962133.689288857
398.2137806,5996518.747510871
398.9748353,6018937.759412916
399.7406101,6032315.337178132
400.5111505,6038671.200444315
401.2865024,6041572.183476164
402.0667126,6041313.187260375
402.8518283,6041321.036451292
403.6418973,6041196.029700452
404.436968,6041209.950707645
405.2370896,6041415.676844698
406.0423117,6041215.401902515
406.8526847,6041366.53510078
407.66825960000006,6041763.465020701
408.4890879,6041671.104601444
409.3152221,6041576.451718469
410.1467152,6041326.441156921
410.9836208,6040911.21877296
411.8259934,6041561.739502593
412.673888,6041241.05374373
413.5273605,6041254.511761805
414.38646760000006,6041269.587858256
415.2512664,6041320.409029035
416.1218152,6041283.238952353
416.9981727,6041273.139081812
417.8803987,6040996.398259369
418.7685535,6041770.240104756
419.6626985,6041502.08108379
420.5628957,6041490.326823385
421.4692081,6041447.335635309
422.3816994,6041342.382426802
423.3004343,6041212.123521688
424.2254783,6041366.953002513
425.1568978,6041167.991836382
426.0947602,6041683.716677369
427.0391337,6041003.569443138
427.9900874,6041256.798781922
428.9476917,6041467.053923576
429.9120175,6041634.607465923
430.8831369,6041351.009014012
431.8611232,6041658.185776826
432.8460504,6041254.199794772
433.8379937,6041326.829295541
434.8370293,6041317.039801452
435.8432345,6041492.7970098285
436.8566878,6041313.427543392
437.8774686,6041572.351295598
438.9056575,6041866.669568239
439.9413364,6041355.529975592
440.9845882,6041517.740936797
442.035497,6041474.688092623
443.0941482,6041665.58468168
444.1606283,6041648.135821532
445.23502520000005,6041543.048308102
446.317428,6041480.939525612
447.407927,6041329.893301186
448.5066141,6041177.455397332
449.6135822,6041320.547899476
450.7289258,6041689.98417157
451.85274060000006,6041025.014132551
452.9851239,6041568.225505003
454.1261744,6041422.428681755
455.2759921,6041274.423072398
456.4346788,6041104.297022932
457.6023374,6041346.037201254
458.7790727,6041622.825483294
459.9649909,6041519.719355185
461.1601998,6041232.99773247
462.364809,6041718.206709548
463.5789295,6041246.745867921
464.8026741000001,6041384.250935108
466.0361575,6041554.131778687
467.2794956999999,6041101.800180297
468.5328070000001,6041777.650762977
469.7962111000001,6041406.264535437
471.0698299,6041569.951108255
472.3537868,6041490.002111603
473.6482074,6041387.757003698
474.9532192,6041591.409760573
476.2689517,6040936.246498654
477.5955362,6041337.759319255
478.93310639999993,6041630.82256135
480.2817979,6041453.198356276
481.6417484,6041090.476136565
483.01309800000007,6041600.517558903
484.3959889,6041227.36504347
485.7905654,6041250.250315742
487.1969743,6041340.902012708
488.6153648,6041385.781122404
490.0458884,6041577.907623126
491.488699,6040912.495905967
492.943953,6041525.383651737
494.4118094,6041271.981505493
495.8924299,6041285.443171886
497.3859785,6041218.28779715
498.8926222,6041265.451708077
500.4125306,6041529.255438527
501.9458762,6041674.436736524
503.4928341,6041446.282415694
505.0535827,6041598.041727218
506.628303,6041414.1411874825
508.2171791999999,6041369.440384602
509.8203986,6041667.037322084
511.4381515,6041194.23372604
513.0706316000001,6041275.441023568
514.7180356,6041413.516206337
516.3805639,6041575.680186138
518.0584200000001,6041221.980791975
519.7518110000001,6041480.551697829
521.4609475999999,6041293.324637876
523.186044,6041784.148173774
524.927318,6041529.825368272
526.6849915,6040937.200313146
528.45929,6041719.286384513
530.2504428000001,6041714.956676028
532.0586836,6041566.57883357
533.8842498,6040962.008412102
535.7273833,6041325.494678047
537.5883299,6041358.184012359
539.46734,6041411.656660782
541.3646685,6041255.239363598
543.2805745000001,6041630.503914361
545.2153222000001,6041479.482742671
547.1691801,6041398.862478198
549.1424218999999,6041257.438080113
551.1353259,6041312.001817604
553.1481756000001,6041469.3741833465
555.1812597,6041531.367335004
557.2348721,6041423.733119691
559.3093121,6041639.998406757
561.4048845,6041372.359938555
563.5218996,6041340.927978868
565.6606737000001,6041771.871703097
567.8215287,6041404.00481932
570.0047927,6041217.081111987
572.2107997,6041334.716130395
574.4398902,6041516.029930249
576.692411,6041657.478241082
578.9687155,6041120.024604606
581.2691637,6041222.335624502
583.5941226,6041460.831912716
585.943966,6041565.01564524
588.3190752,6041576.881557968
590.7198384999999,6041911.749125132
593.1466518,6041304.764415774
595.5999188999999,6041516.10827836
598.0800512,6041303.116013117
600.5874682,6041551.455093117
603.1225977000001,6041091.652447793
605.6858758999999,6041524.168569206
608.2777476,6041669.285375748
610.8986664,6041739.751931174
613.549095,6041081.150773923
616.2295054,6041462.129457887
618.940379,6041115.910955875
621.6822068,6043595.906319679
624.4554901,6039528.397173477
627.2607402000001,6040553.3404264925
630.0984786,6043325.786456898
632.9692378999999,6040794.357702727
635.8735614,6042108.606033999
638.8120038,6042390.06704078
641.7851312999999,6039896.95529876
644.7935217999999,6039549.279043719
647.8377654,6040642.590711179
650.9184646000001,6041220.7121908525
654.0362346,6041800.641179649
657.1917038,6042180.051371672
660.3855139,6042572.563443849
663.6183202999999,6039791.17498094
666.8907926,6040777.595548852
670.2036149,6042338.225847519
673.557486,6039883.223198732
676.9531202000001,6041777.123796071
680.3912472999999,6040568.079126709
683.8726131,6041353.404405857
703.1812034,6041331.510317459
704.2110782000001,6034408.143058947
705.2443688999999,6001476.751476896
706.2810885,5926489.240218572
707.3212499,5796553.722529887
708.3648661000001,5602613.269924725
709.41195,5340322.041612587
710.4625143999999,5008270.949836734
711.5165721,4607884.872153019
712.5741357,4156723.900602465
713.6352181,3699867.615380514
714.6998317000001,3275251.7292207074
715.7679891,2913561.1965372404
716.8397027999999,2638610.145425174
717.9149852,2463083.3367133485
718.9938487000001,2392333.2506083185
720.0763055,2424636.5527081685
721.162368,2544390.2984507373
722.2520481,2720876.6189036896
723.3453581,2924573.507941234
724.4423098,3130931.83119498
725.5429153,3319571.053113372
726.6471863,3477423.115269578
727.7551346,3597095.198525487
728.866772,3677540.313457483
729.9821099,3721703.684980215
731.1011599,3734003.150441658
732.2239335,3720256.9032198233
733.3504419,3685912.0449722833
734.4806963999999,3635004.723145312
735.6147081,3571533.822726118
736.7524882,3498804.204572731
737.8940474,3419158.277133293
739.0393967,3340101.289983452
740.1885467999999,3271222.9146600426
741.3415084,3227182.6808242938
742.498292,3227320.2178914286
743.658908,3287084.185999661
744.8233667999999,3408783.056766678
745.9916785,3594192.794851364
747.1638532000001,3840141.101026168
748.3399009,4138010.865734168
749.5198315,4471896.625601148
750.7036546,4816154.960030578
751.89138,5135017.870853708
753.0830171,5406252.302718901
754.2785752999999,5627369.349020484
755.4780638,5798713.242807322
756.6814917,5920140.045404918
757.8888678999999,5994846.022156414
759.1002014999999,6031277.724336399
760.3155009,6041422.540877156
761.5347749,6041456.116721397
762.7580318,6041363.412736865
763.98528,6041286.075991209
765.2165276000001,6041626.161114726
766.4517825,6041364.2464734325
767.6910527000001,6041606.193474527
768.9343458999999,6041345.548343788
770.1816697,6041270.78928163
771.4330313999999,6041344.87657087
772.6884382999999,6041528.459953505
773.9478975,6041371.111006471
775.211416,6041768.571698408
776.4790005,6041688.286063748
777.7506578,6041419.630934094
779.0263942,6041108.582573384
780.3062162,6041236.293611111
781.5901297,6041015.763583353
782.8781409,6041687.667570801
784.1702554999999,6041695.519285145
785.4664793,6041842.932652517
786.7668176,6041017.010751676
788.0712758,6041178.356482808
789.3798591,6041251.283727039
790.6925722999999,6041311.861557088
792.0094204,6041393.884977872
793.3304079,6041290.985439526
794.6555392000001,6041472.729320486
795.9848187000001,6041567.287435471
797.3182504,6041163.7793804975
798.6558382999999,6041579.083554664
799.9975861,6041014.559745517
801.3434973,6041133.152911719
802.6935752999999,6041374.299341513
804.0478232999999,6041627.707916914
805.4062443,6041267.702490067
806.7688411,6041746.7636660775
808.1356164,6041317.968144717
809.5065726,6041197.777924172
810.881712,6037544.896481733
812.2610367000001,6028394.59190735
813.6445485,6014816.900926956
815.0322493,5998248.768784817
816.4241404,5982416.504881337
817.8202233,5967149.80877832
819.2204991,5951036.45936847
820.6249687999999,5934797.686519957
822.0336331,5927062.981777205
823.4464925999999,5929779.4752374
824.8635477000001,5942045.484309628
826.2847987,5958121.960509658
827.7102456,5973461.706609474
829.1398882,5989882.647950089
830.5737261,6005201.513707697
832.0117589,6021290.13786632
833.4539857000001,6033398.097096953
834.9004057999999,6039936.180928725
836.3510179,6041890.608300451
837.8058209,6041188.413779288
839.2648132999999,6041467.879739725
840.7279934000001,6041280.521402918
842.1953594,6041140.164031638
843.6669092,6041515.730522771
845.1426408,6041428.60068933
846.6225517000001,6041310.586533397
848.1066392999999,6041520.939658328
849.5949009999999,6041297.197510527
851.0873337999999,6041161.849240896
852.5839347000001,6041478.900197905
854.0847002999999,6041287.716090117
855.5896273,6041251.319928652
857.0987119999999,6041367.33564489
858.6119507000001,6041499.11833986
860.1293393999999,6041329.139505252
861.650874,6041459.402341343
863.1765502000001,6041490.657432567
864.7063635,6041257.659023435
866.2403094,6041336.348469251
867.778383,6041149.03002128
869.3205793999999,6041839.850766764
870.8668935000001,6041288.739347925
872.4173199999999,6041183.783607182
873.9718536,6041532.002847607
875.5304886,6041386.940272795
877.0932193,6041328.881488076
878.6600399,6041058.234669288
880.2309443,6041762.417351128
881.8059264000001,6041203.312318431
883.3849798,6041418.003360568
884.9680981,6041429.322478843
886.5552747000002,6041397.31540148
888.1465029,6041060.210288429
889.7417757000001,6041264.359633659
891.3410862,6041602.531741967
892.9444273,6041232.975990633
894.5517916000001,6041555.92160339
896.1631719000001,6041299.317566822
897.7785605,6041622.802593856
899.3979498,6041630.69443692
901.0213321,6041283.673450068
902.6486995,6041479.290664049
904.280044,6041292.442164497
905.9153575,6041270.44394296
907.5546319,6041050.794765208
909.1978586,6041153.945523327
910.8450295,6041256.961517931
912.4961358,6041027.299609391
914.1511691,6041785.9786400935
915.8101205,6041537.5595049225
917.4729813,6041242.926993521
919.1397426,6041077.478600496
920.8103953,6041337.505155128
922.4849303,6041133.543975286
924.1633386,6041576.44108139
925.8456109,6041554.54729999
927.5317378,6041214.256195001
929.22171,6041894.412019456
930.9155179,6041482.448954918
932.6131521,6041583.984047699
934.3146028,6041736.247791188
936.0198606,6041440.082229637
937.7289155,6041409.849225984
939.4417579,6041478.336114589
941.1583779,6041314.983901771
942.8787656,6041395.1008411925
944.6029109,6041840.892728483
946.3308041,6041876.075752604
948.0624349,6040986.72776355
949.7977933,6041480.451556994
951.5368692,6041445.860766117
953.2796523,6041193.790342455
955.0261327,6041281.1139344815
956.7762999,6041352.118376207
958.5301437,6041402.989568533
960.2876539,6041168.233986389
962.0488201,6041106.01089034
963.813632,6041381.707818882
965.5820793,6040956.1186445085
967.3541517,6041766.752679353
969.1298386,6041809.955394045
970.9091298,6040680.684005692
972.6920149,6042111.601190719
974.4784835,6040792.893440379
976.2685251,6041733.956126005
978.0621293,6041590.435390086
979.8592859,6042133.465484602
981.6599843,6042873.602297604
983.4642142,6041213.157967523
985.2719651,6040836.4467942575
987.0832269,6040873.194806333
988.897989,6040841.138829352
990.7162412,6041645.679377751
992.5379731,6041289.37266297
994.3631745,6041552.363521826
996.191835,6031455.916302208
998.0239445,6001213.5884593325
999.8594926,5942307.909043522
1001.698469,5846733.8667527065
1003.540864,5707560.284899212
1005.386668,5522361.6056684535
1007.235869,5285556.154156412
1009.088458,4995908.391635535
1010.944426,4669098.888067725
1012.803762,4326423.245774676
1014.666456,3984820.096130318
1016.532498,3657840.0516418833
1018.401878,3356337.299297148
1020.274588,3091008.3925567083
1022.150616,2866481.986331553
1024.029953,2687686.6733198487
1025.912591,2545569.553534901
1027.798518,2433091.422565682
1029.687726,2340000.9985964247
1031.580205,2259862.4810585207
1033.475945,2183585.1058121133
1035.3749380000002,2107749.907593725
1037.277175,2028780.953520708
1039.182645,1942645.3150049704
1041.09134,1850905.153987476
1043.003251,1752263.8371960246
1044.918368,1648720.01310298
1046.836683,1541831.0127302962
1048.758188,1434952.265840348
1050.682872,1328869.946519811
1052.610728,1226942.3993354845
1054.541747,1132380.159601252
1056.4759210000002,1044806.0206476344
1058.41324,966826.7752076852
1060.353697,897870.1805388415
1062.297282,837964.6889393901
1064.243989,785584.795399283
1066.193809,741325.6278458548
1068.146734,703964.5906869301
1070.102755,670864.5047357813
1072.061865,641802.6148313585
1074.024056,615294.2940189933
1075.989321,590406.671789814
1077.957651,566059.7307356157
1079.92904,542356.2179932783
1081.9034800000002,518507.8847868306
1083.880963,493817.5933955719
1085.861482,469875.9860790502
1087.8450300000002,446496.0053174853
1089.8316,422639.9163826367
1091.821185,400769.2545503244
1093.8137789999998,379901.84814366815
1095.809373,360343.3140932901
1097.807962,341783.01874921826
1099.809539,325250.5982988232
1101.814098,310652.18691938143
1103.821631,297396.6705832861
1105.832134,285578.9999922994
1107.845599,275461.12799395283
1109.86202,266508.4243037332
1111.881392,258712.15499741075
1113.903708,251345.80207787163
1115.928963,245037.40914595497
1117.95715,238888.33559601448
1119.988266,232735.31006177596
1122.022303,226328.7901872597
1124.059256,219348.72089459345
1126.09912,212541.5018875947
1128.14189,205019.6022342709
1130.187561,197205.0203854668
1132.236128,188992.34282592204
