wave,flux
306.2504509,28.150175674512145
306.5604242,49.07316902668264
306.871524,73.603567791106
307.18375710000004,103.26472898314314
307.4971302,143.5704515840334
307.8116501,198.0083345884813
308.1273236,231.61101442741705
308.4441577,274.3005428352542
308.7621594,321.8444130223816
309.0813356,372.7222102229123
309.4016935,422.6550697944672
309.7232403,486.06032456690696
310.04598300000004,549.8125390720974
310.369929,622.7035860093565
310.6950856,697.5606974664183
311.0214601,783.6275735912004
311.34906010000003,871.9008870383487
311.6778931,962.0114616888349
312.0079665,1068.9047057788662
312.33928810000003,1177.460217666645
312.6718655,1294.083081260757
313.00570639999995,1420.393732520771
313.3408189,1553.9290701582015
313.6772106,1701.5397901649362
314.0148896,1857.9528092737012
314.3538639,2016.611474446301
314.6941415,2187.2099446862544
315.0357308,2375.5938238387744
315.37863980000003,2571.9614017563
315.7228769,2764.4525577173104
316.0684504,2978.0246958011194
316.4153688,3194.047548208538
316.76364069999994,3422.2682702275783
317.1132746,3662.107246695778
317.4642791,3909.376207613489
317.8166631,4152.897580701359
318.1704352,4420.685286739298
318.5256045,4685.151783861565
318.8821799,4969.544764440237
319.2401704,5256.954782465066
319.5995851,5547.419943417154
319.96043330000003,5842.139155293316
320.3227243,6140.162950335553
320.6864673,6445.756273431609
321.0516719,6743.772981990395
321.4183476,7039.615284626909
321.786504,7355.7864940097315
322.1561508,7673.266594479754
322.5272977,7986.160201608697
322.8999548,8337.714837876667
323.2741319,8734.887270907804
323.649839,9179.129872770509
324.0270864,9686.26909295162
324.40588419999995,10227.674596484414
324.7862428,10831.26571057179
325.16817260000005,11501.201106220027
325.5516841,12192.182770561283
325.9367879,12910.588436423755
326.32349480000005,13619.288268712186
326.7118154,14280.457452493583
327.1017607,14964.807985861304
327.4933418,15603.902286618117
327.88656960000003,16228.048845753
328.2814555,16827.647494746136
328.6780106,17416.90914921762
329.0762465,18022.90256127529
329.47617460000004,18665.570712289256
329.8778065,19304.761353387123
330.281154,19975.71710926244
330.6862289,20698.547133457232
331.0930432,21436.48049119525
331.5016088,22215.30729066618
331.911938,23047.4167312208
332.32404310000004,23906.633229779884
332.7379364,24832.84760411631
333.1536305,25844.66299476828
333.571138,26918.394849718068
333.9904716,28086.051694750186
334.4116443,29377.84082181013
334.834669,30813.410381001464
335.2595588,32390.22960689992
335.686327,34183.92426747797
336.114987,36165.71210765754
336.5455522,38414.061709826565
336.9780363,40963.527445428575
337.41245310000005,43855.806824024985
337.8488164,47143.44318668587
338.28714019999995,50852.41883134205
338.7274388,55038.22516893934
339.1697264,59748.35792846712
339.6140175,65020.61924576837
340.06032660000005,70906.19222980812
340.5086685,77469.33671052069
340.959058,84708.80918866383
341.4115102,92689.8072453398
341.8660403,101450.9585815145
342.32266339999995,111106.04890430416
342.7813952,121622.04502323813
343.24225110000003,133085.60973845428
343.70524710000007,145565.78568338128
344.17039889999995,159045.9027604326
344.6377228,173625.78256375346
345.1072349,189213.5638100937
345.5789517,205790.19691736336
346.0528897,223329.4847650888
346.5290657,241844.42062316943
347.0074967,261195.3140696656
347.48819960000003,281216.5231743304
347.9711917,302048.67444027896
348.45649060000005,323458.9096224541
348.9441137,345420.76063960715
349.434079,367876.9887969396
349.9264043,390948.7810220085
350.4211078,414549.8534714863
350.9182079,438688.33031964255
351.4177232,463456.3543079975
351.9196722,488946.4154938724
352.42407410000004,514870.0926168262
352.9309478,541457.839417225
353.4403127,568577.188961121
353.95218839999995,596034.3364215539
354.4665945,623716.6436748685
354.983551,651355.8085819215
355.503078,679085.8431309204
356.025196,706266.9803834873
356.5499253,733148.5233468638
357.077287,759363.8990222507
357.6073018,784833.0671924398
358.1399912,809566.0694439274
358.6753765,833233.3245299055
359.2134795,855882.8062854483
359.754322,877234.4280985009
360.2979263,896901.8412815309
360.8443147,914971.1146849352
361.3935098,931309.8265375654
361.9455346,945525.1745517832
362.5004122,957882.8596141464
363.058166,968714.9568229156
363.61881960000005,978766.9067443036
364.1823969,989086.0344348892
364.7489221,1000850.913533886
365.3184196,1015681.4299339608
365.8909141,1034847.8068222258
366.4664305,1059680.6593105842
367.0449943,1091272.8056184296
367.6266307,1129903.9448444908
368.2113658,1175186.8937858716
368.7992255,1225926.8635574123
369.3902363,1279856.7091199756
369.9844249,1333977.8894479328
370.5818182,1385279.625331154
371.1824436,1429919.4095300883
371.7863286000001,1464649.7654940274
372.3935012,1486629.7624904655
373.0039896,1494019.3760828231
373.6178223,1485930.5751445922
374.2350283,1462512.2777193678
374.8556368,1426416.6057062596
375.4796772,1379667.4700736522
376.1071796,1325496.8202679213
376.7381741,1267722.1604323916
377.3726913,1209951.6028112655
378.0107622,1155567.161133055
378.652418,1106546.3302102217
379.2976904,1065374.9536770314
379.9466115,1032760.9706263072
380.5992136,1009292.7450798128
381.2555296,994759.4028385808
381.9155926,988492.4304367556
382.5794362,989608.30789738
383.2470943,997434.4032386214
383.9186014,1011457.343054244
384.5939922,1030765.5110896364
385.2733019,1054650.5266744962
385.9565661,1082038.203934787
386.6438209,1112352.4521177062
387.3351027,1144749.135480588
388.0304484,1179506.4370194338
388.7298955,1216150.0443644286
389.4334817,1253771.104215236
390.1412452,1292046.0891191536
390.853225,1331773.2004259378
391.56946,1373383.9229331887
392.2899901,1416959.663413114
393.0148555,1462067.5722146947
393.7440968,1508256.4829557573
394.4777551,1554590.1982215894
395.2158722,1601015.7941262105
395.9584903,1646727.9667502523
396.7056521,1691066.2955793594
397.457401,1735036.4977320782
398.2137806,1780042.7314572316
398.9748353,1827737.1613247255
399.7406101,1881980.110029859
400.5111505,1946263.2802203016
401.2865024,2023916.112642056
402.0667126,2117282.6903725127
402.8518283,2228300.446920623
403.6418973,2356712.156579804
404.436968,2499829.772545333
405.2370896,2653261.253665554
406.0423117,2810800.8726197523
406.8526847,2964242.4441474364
407.66825960000006,3105519.6861724188
408.4890879,3226903.7909557377
409.3152221,3321408.6565619893
410.1467152,3385067.912529211
410.9836208,3415199.620796879
411.8259934,3412003.892691131
412.673888,3379630.65611605
413.5273605,3323252.256498444
414.38646760000006,3250093.874262406
415.2512664,3168669.088329765
416.1218152,3086764.3314128863
416.9981727,3013848.724459825
417.8803987,2958162.446483012
418.7685535,2927290.7746308288
419.6626985,2929360.115679705
420.5628957,2971655.200520132
421.4692081,3062207.943582418
422.3816994,3207867.2094489457
423.3004343,3406711.830980413
424.2254783,3652306.1451397976
425.1568978,3935832.695535091
426.0947602,4246560.912642732
427.0391337,4569994.416792195
427.9900874,4889687.471035247
428.9476917,5185538.000466744
429.9120175,5437023.365623395
430.8831369,5640087.46337653
431.8611232,5795318.533037223
432.8460504,5907312.855376144
433.8379937,5978964.545569989
434.8370293,6009647.338518988
435.8432345,6001814.182118498
436.8566878,5962304.725475728
437.8774686,5900244.813301682
438.9056575,5816910.144752816
439.9413364,5711631.866923115
440.9845882,5583861.750213244
442.035497,5435631.803386845
443.0941482,5280896.168100347
444.1606283,5130235.16295285
445.23502520000005,4990901.184723028
446.317428,4867221.799033411
447.407927,4763304.168417896
448.5066141,4679817.145941428
449.6135822,4621252.777222686
450.7289258,4587499.506254728
451.85274060000006,4575202.266363607
452.9851239,4581801.502789814
454.1261744,4612171.009774048
455.2759921,4669965.920791709
456.4346788,4752849.961937762
457.6023374,4858001.887042759
458.7790727,4983246.205442252
459.9649909,5124871.208783755
461.1601998,5278153.368067668
462.364809,5439766.34888126
463.5789295,5591419.522955348
464.8026741000001,5719338.104013734
466.0361575,5824428.752232866
467.2794956999999,5906908.297758256
468.5328070000001,5968376.5722949775
469.7962111000001,6010512.052628867
471.0698299,6034265.057522552
472.3537868,6041888.253632849
473.6482074,6041430.725150643
474.9532192,6041564.231030607
476.2689517,6041424.484123782
477.5955362,6041541.948828716
478.93310639999993,6040975.899753992
480.2817979,6041621.208111882
481.6417484,6041365.893579736
483.01309800000007,6041424.394439126
484.3959889,6041574.636127004
485.7905654,6041245.648057452
487.1969743,6041623.183144217
488.6153648,6041103.599314287
490.0458884,6041173.137609191
491.488699,6041679.614872438
492.943953,6041277.593533712
494.4118094,6041488.524376852
495.8924299,6041579.90272582
497.3859785,6041216.892844355
498.8926222,6041040.217174073
500.4125306,6041347.012876461
501.9458762,6041416.952846304
503.4928341,6040999.979287754
505.0535827,6041487.903865164
506.628303,6041388.794591238
508.2171791999999,6041356.578101455
509.8203986,6041066.772217439
511.4381515,6041487.086683743
513.0706316000001,6041549.90511931
514.7180356,6041768.407754293
516.3805639,6041401.664532159
518.0584200000001,6041490.41395153
519.7518110000001,6041452.120454593
521.4609475999999,6041679.325777955
523.186044,6041314.606231073
524.927318,6041316.7525429465
526.6849915,6041034.486838285
528.45929,6041599.823692593
530.2504428000001,6041932.581088357
532.0586836,6041349.824687417
533.8842498,6041774.621840647
535.7273833,6041708.305301038
537.5883299,6041199.0693393685
539.46734,6041637.732428386
541.3646685,6041862.054914882
543.2805745000001,6041069.568456068
545.2153222000001,6041260.090099527
547.1691801,6041127.420276158
549.1424218999999,6041264.309424222
551.1353259,6041389.394152074
553.1481756000001,6041611.23471804
555.1812597,6041596.806191723
557.2348721,6040848.614031358
559.3093121,6041296.035769697
561.4048845,6041332.832305855
563.5218996,6041798.550848442
565.6606737000001,6041804.505802587
567.8215287,6041034.546092797
570.0047927,6041566.357351173
572.2107997,6041234.695076088
574.4398902,6041235.343151586
576.692411,6041952.066590399
578.9687155,6041684.1022420265
581.2691637,6041307.750786018
583.5941226,6041763.637533988
585.943966,6041181.342775107
588.3190752,6041393.677191338
590.7198384999999,6040935.266369011
593.1466518,6041252.511999702
595.5999188999999,6041076.370966655
598.0800512,6041411.838915104
600.5874682,6041966.892508453
603.1225977000001,6041487.680866018
605.6858758999999,6041634.331611172
608.2777476,6041234.306531208
610.8986664,6041276.907415771
613.549095,6041664.753169859
616.2295054,6041196.911831273
618.940379,6041826.040525224
621.6822068,6042254.18941092
624.4554901,6042618.402566223
627.2607402000001,6040264.652980526
630.0984786,6039929.271206291
632.9692378999999,6041658.785466819
635.8735614,6041509.627642107
638.8120038,6040749.473203794
641.7851312999999,6043111.226663335
644.7935217999999,6042656.304592492
647.8377654,6040429.211602043
650.9184646000001,6043706.18430239
654.0362346,6041488.829916967
657.1917038,6041389.832072292
660.3855139,6040635.534821028
663.6183202999999,6042394.192896672
666.8907926,6040236.129832832
670.2036149,6043792.370962585
673.557486,6043066.586070763
676.9531202000001,6040489.235510942
680.3912472999999,6038024.117998742
683.8726131,6044223.716645171
687.3979803,6041098.804454866
690.9681281000001,6041131.574806679
694.5838534,6041399.630113335
698.2459709,6040280.4735549325
701.9553139,6039938.964736382
705.7127343,6040483.525764561
709.5191037000001,6041433.491901835
713.3753136,6039932.938273515
717.282276,6042023.255699608
721.2409241,6043002.714225952
725.2522127999999,6043223.191674225
729.3171195,6038212.449374245
733.4366444,6039266.48620449
737.6118116,6042320.624209026
741.8436694000001,6039870.978504398
746.1332914,6038762.09836328
750.4817767999999,6044498.428202857
754.8902515999999,6041735.105716675
759.3598692,6043347.174822339
763.8918112000001,6043065.020573574
768.4872882999999,6038770.755985699
773.1475413,6040217.0034029465
777.8738417999999,6039961.526117873
782.6674933999999,6043323.952467424
786.7668176,6041017.010751676
787.5298327,6041003.017221565
788.0712758,6041178.356482808
789.3798591,6041251.283727039
790.6925722999999,6041311.861557088
792.0094204,6041393.884977872
793.3304079,6041290.985439526
794.6555392000001,6041472.729320486
795.9848187000001,6041567.287435471
797.3182504,6041163.7793804975
798.6558382999999,6041579.083554664
799.9975861,6041014.559745517
801.3434973,6041133.152911719
802.6935752999999,6041374.299341513
804.0478232999999,6041627.707916914
805.4062443,6041267.702490067
806.7688411,6041746.7636660775
808.1356164,6041317.968144717
809.5065726,6041197.777924172
810.881712,6037544.896481733
812.2610367000001,6028394.59190735
813.6445485,6014816.900926956
815.0322493,5998248.768784817
816.4241404,5982416.504881337
817.8202233,5967149.80877832
819.2204991,5951036.45936847
820.6249687999999,5934797.686519957
822.0336331,5927062.981777205
823.4464925999999,5929779.4752374
824.8635477000001,5942045.484309628
826.2847987,5958121.960509658
827.7102456,5973461.706609474
829.1398882,5989882.647950089
830.5737261,6005201.513707697
832.0117589,6021290.13786632
833.4539857000001,6033398.097096953
834.9004057999999,6039936.180928725
836.3510179,6041890.608300451
837.8058209,6041188.413779288
839.2648132999999,6041467.879739725
840.7279934000001,6041280.521402918
842.1953594,6041140.164031638
843.6669092,6041515.730522771
845.1426408,6041428.60068933
846.6225517000001,6041310.586533397
848.1066392999999,6041520.939658328
849.5949009999999,6041297.197510527
851.0873337999999,6041161.849240896
852.5839347000001,6041478.900197905
854.0847002999999,6041287.716090117
855.5896273,6041251.319928652
857.0987119999999,6041367.33564489
858.6119507000001,6041499.11833986
860.1293393999999,6041329.139505252
861.650874,6041459.402341343
863.1765502000001,6041490.657432567
864.7063635,6041257.659023435
866.2403094,6041336.348469251
867.778383,6041149.03002128
869.3205793999999,6041839.850766764
870.8668935000001,6041288.739347925
872.4173199999999,6041183.783607182
873.9718536,6041532.002847607
875.5304886,6041386.940272795
877.0932193,6041328.881488076
878.6600399,6041058.234669288
880.2309443,6041762.417351128
881.8059264000001,6041203.312318431
883.3849798,6041418.003360568
884.9680981,6041429.322478843
886.5552747000002,6041397.31540148
888.1465029,6041060.210288429
889.7417757000001,6041264.359633659
891.3410862,6041602.531741967
892.9444273,6041232.975990633
894.5517916000001,6041555.92160339
896.1631719000001,6041299.317566822
897.7785605,6041622.802593856
899.3979498,6041630.69443692
901.0213321,6041283.673450068
902.6486995,6041479.290664049
904.280044,6041292.442164497
905.9153575,6041270.44394296
907.5546319,6041050.794765208
909.1978586,6041153.945523327
910.8450295,6041256.961517931
912.4961358,6041027.299609391
914.1511691,6041785.9786400935
915.8101205,6041537.5595049225
917.4729813,6041242.926993521
919.1397426,6041077.478600496
920.8103953,6041337.505155128
922.4849303,6041133.543975286
924.1633386,6041576.44108139
925.8456109,6041554.54729999
927.5317378,6041214.256195001
929.22171,6041894.412019456
930.9155179,6041482.448954918
932.6131521,6041583.984047699
934.3146028,6041736.247791188
936.0198606,6041440.082229637
937.7289155,6041409.849225984
939.4417579,6041478.336114589
941.1583779,6041314.983901771
942.8787656,6041395.1008411925
944.6029109,6041840.892728483
946.3308041,6041876.075752604
948.0624349,6040986.72776355
949.7977933,6041480.451556994
951.5368692,6041445.860766117
953.2796523,6041193.790342455
955.0261327,6041281.1139344815
956.7762999,6041352.118376207
958.5301437,6041402.989568533
960.2876539,6041168.233986389
962.0488201,6041106.01089034
963.813632,6041381.707818882
965.5820793,6040956.1186445085
967.3541517,6041766.752679353
969.1298386,6041809.955394045
970.9091298,6040680.684005692
972.6920149,6042111.601190719
974.4784835,6040792.893440379
976.2685251,6041733.956126005
978.0621293,6041590.435390086
979.8592859,6042133.465484602
981.6599843,6042873.602297604
983.4642142,6041213.157967523
985.2719651,6040836.4467942575
987.0832269,6040873.194806333
988.897989,6040841.138829352
990.7162412,6041645.679377751
992.5379731,6041289.37266297
994.3631745,6041552.363521826
996.191835,6031455.916302208
998.0239445,6001213.5884593325
999.8594926,5942307.909043522
1001.698469,5846733.8667527065
1003.540864,5707560.284899212
1005.386668,5522361.6056684535
1007.235869,5285556.154156412
1009.088458,4995908.391635535
1010.944426,4669098.888067725
1012.803762,4326423.245774676
1014.666456,3984820.096130318
1016.532498,3657840.0516418833
1018.401878,3356337.299297148
1020.274588,3091008.3925567083
1022.150616,2866481.986331553
1024.029953,2687686.6733198487
1025.912591,2545569.553534901
1027.798518,2433091.422565682
1029.687726,2340000.9985964247
1031.580205,2259862.4810585207
1033.475945,2183585.1058121133
1035.3749380000002,2107749.907593725
1037.277175,2028780.953520708
1039.182645,1942645.3150049704
1041.09134,1850905.153987476
1043.003251,1752263.8371960246
1044.918368,1648720.01310298
1046.836683,1541831.0127302962
1048.758188,1434952.265840348
1050.682872,1328869.946519811
1052.610728,1226942.3993354845
1054.541747,1132380.159601252
1056.4759210000002,1044806.0206476344
1058.41324,966826.7752076852
1060.353697,897870.1805388415
1062.297282,837964.6889393901
1064.243989,785584.795399283
1066.193809,741325.6278458548
1068.146734,703964.5906869301
1070.102755,670864.5047357813
1072.061865,641802.6148313585
1074.024056,615294.2940189933
1075.989321,590406.671789814
1077.957651,566059.7307356157
1079.92904,542356.2179932783
1081.9034800000002,518507.8847868306
1083.880963,493817.5933955719
1085.861482,469875.9860790502
1087.8450300000002,446496.0053174853
1089.8316,422639.9163826367
1091.821185,400769.2545503244
1093.8137789999998,379901.84814366815
1095.809373,360343.3140932901
1097.807962,341783.01874921826
1099.809539,325250.5982988232
1101.814098,310652.18691938143
1103.821631,297396.6705832861
1105.832134,285578.9999922994
1107.845599,275461.12799395283
1109.86202,266508.4243037332
1111.881392,258712.15499741075
1113.903708,251345.80207787163
1115.928963,245037.40914595497
1117.95715,238888.33559601448
1119.988266,232735.31006177596
1122.022303,226328.7901872597
1124.059256,219348.72089459345
1126.09912,212541.5018875947
1128.14189,205019.6022342709
1130.187561,197205.0203854668
1132.236128,188992.34282592204
1134.287585,180442.53598648915
1136.341929,172198.97541633062
1138.3991529999998,163901.43355782225
1140.459254,155589.14701926356
1142.522228,147631.50257439114
1144.588069,140017.6072228972
1146.6567730000002,132604.9878781259
1148.728337,125664.53389932936
1150.802756,118926.77871582856
1152.880025,112302.5863227754
1154.960142,105860.81381300966
1157.043103,99446.37039489944
1159.128903,93308.00917405692
1161.217539,87384.42086161932
1163.309007,81446.36604983735
1165.403305,75391.91808117897
1167.500429,69343.81079705039
1169.600375,63448.71508168357
1171.703141,57687.35696417806
1173.808724,51772.028966136575
1175.9171199999998,46098.354691574095
1178.028327,40262.24369235116
1180.142342,34650.68153993727
1182.2591630000002,29336.24254210216
1184.378787,24450.69686183541
1186.501211,19798.995204551684
1188.626434,15690.475154136702
1190.754453,12010.928876102496
1192.885266,8794.351837598557
1195.018872,6188.578361664267
1197.155267,4185.7302964075625
1199.294451,2657.7304899958144
1201.436421,1525.880264569768
1203.581177,804.9783857899585
1205.728716,329.32113077714746
1207.879037,73.28567018869207
1210.032139,2.5116853732356166
1212.1880199999998,-6.545044264506767
1214.34668,-0.2076672610613938
1216.508117,4.5116879438961455
1218.67233,-2.1929967754893065
1220.839319,-0.9587820112067558
1223.009083,0.4764751871373476
1225.1816210000002,-0.2515315835732376
1227.356932,-2.942075625240565
