wave,flux
306.2504509,29.478257134589462
306.5604242,48.21992118772106
306.871524,81.3627216158394
307.18375710000004,112.9892431040244
307.4971302,159.46235172228631
307.8116501,208.3527621767083
308.1273236,246.0316666715877
308.4441577,293.8441691991476
308.7621594,338.76601943987214
309.0813356,397.6947591048272
309.4016935,455.3264208454188
309.7232403,520.0955235740577
310.04598300000004,594.77384706045
310.369929,675.0747639020638
310.6950856,753.9423854020313
311.0214601,847.7108463941378
311.34906010000003,939.618260558352
311.6778931,1043.8457728422725
312.0079665,1153.6230601638038
312.33928810000003,1263.366769895423
312.6718655,1388.6576227080625
313.00570639999995,1520.5440831294186
313.3408189,1659.3809682660783
313.6772106,1802.482184042046
314.0148896,1959.1982880517808
314.3538639,2110.856950312808
314.6941415,2272.842239159505
315.0357308,2446.126246546064
315.37863980000003,2626.448360209756
315.7228769,2803.7444686929557
316.0684504,3004.340025948618
316.4153688,3203.676742233544
316.76364069999994,3398.824737115769
317.1132746,3606.6125375321753
317.4642791,3828.036406549114
317.8166631,4045.2515594712672
318.1704352,4263.1394672936885
318.5256045,4490.539458900307
318.8821799,4721.638192912761
319.2401704,4959.373120933124
319.5995851,5194.004626130931
319.96043330000003,5433.866738135725
320.3227243,5673.98439097582
320.6864673,5910.4118881626855
321.0516719,6159.408725153639
321.4183476,6418.094868165434
321.786504,6682.31931084874
322.1561508,6943.378569021445
322.5272977,7214.94064221101
322.8999548,7506.221620458619
323.2741319,7826.842805921828
323.649839,8125.070487547188
324.0270864,8469.299588411033
324.40588419999995,8815.687517247647
324.7862428,9184.4513414847
325.16817260000005,9574.59244640685
325.5516841,9983.864408527852
325.9367879,10411.46068016534
326.32349480000005,10856.133415663213
326.7118154,11307.12372656221
327.1017607,11782.426215062223
327.4933418,12285.924765865762
327.88656960000003,12793.271709054106
328.2814555,13307.56806650178
328.6780106,13847.671462807966
329.0762465,14387.812460201942
329.47617460000004,14962.91456168574
329.8778065,15539.381630234098
330.281154,16141.32564256009
330.6862289,16764.306207039608
331.0930432,17434.300333428906
331.5016088,18165.30744120849
331.911938,18965.57196868726
332.32404310000004,19832.16529795992
332.7379364,20801.62493409617
333.1536305,21857.79473017242
333.571138,23024.596276070308
333.9904716,24311.40716155282
334.4116443,25734.36986601104
334.834669,27237.7551571115
335.2595588,28885.54022134683
335.686327,30661.296463725583
336.114987,32667.506031917517
336.5455522,34893.00051440042
336.9780363,37417.50160469109
337.41245310000005,40284.226067519216
337.8488164,43587.92147537813
338.28714019999995,47367.97707147472
338.7274388,51697.670434721455
339.1697264,56575.630735719344
339.6140175,62109.515347419474
340.06032660000005,68287.30019685545
340.5086685,75173.36641985405
340.959058,82772.68572579928
341.4115102,91127.50710348035
341.8660403,100318.90597539596
342.32266339999995,110329.43485422982
342.7813952,121358.31040788708
343.24225110000003,133308.4185222935
343.70524710000007,146244.65077021992
344.17039889999995,160230.51290402727
344.6377228,175282.06361875712
345.1072349,191415.4529284995
345.5789517,208602.05789844145
346.0528897,226718.9278311885
346.5290657,245650.82294890063
347.0074967,265415.3883362026
347.48819960000003,285846.9370917626
347.9711917,306867.6635231438
348.45649060000005,328286.368530366
348.9441137,349927.0911872381
349.434079,371932.4433328842
349.9264043,393983.7246795045
350.4211078,416156.8709210696
350.9182079,438324.64932127495
351.4177232,460472.0388925953
351.9196722,482519.820076839
352.42407410000004,504376.4936828941
352.9309478,525955.7261526496
353.4403127,547180.6046376354
353.95218839999995,568081.9539339718
354.4665945,588162.4386883096
354.983551,607597.3641876028
355.503078,626130.1313212846
356.025196,643665.6599818603
356.5499253,660172.1393819443
357.077287,675226.4761144823
357.6073018,689012.7290050861
358.1399912,701519.2113164968
358.6753765,712383.1652227396
359.2134795,721703.2004776626
359.754322,729435.6760496759
360.2979263,735498.5050908015
360.8443147,739955.2021844254
361.3935098,742806.6480583552
361.9455346,743889.4120392223
362.5004122,743499.9255945765
363.058166,741706.7229853027
363.61881960000005,738721.3853080404
364.1823969,734927.9520182608
364.7489221,730872.8119965604
365.3184196,726664.4987530375
365.8909141,723053.7687171991
366.4664305,720410.1422957872
367.0449943,719106.1595470981
367.6266307,719471.4050757453
368.2113658,721715.5652673873
368.7992255,725765.6575149031
369.3902363,731722.52996414
369.9844249,739339.3208612071
370.5818182,748053.2097273594
371.1824436,757818.0118836575
371.7863286000001,768103.4627248759
372.3935012,778552.5632846737
373.0039896,788482.1033091231
373.6178223,798213.0408013626
374.2350283,807461.087866154
374.8556368,816599.4423093153
375.4796772,826185.6836320262
376.1071796,836958.7277248389
376.7381741,850243.6933543951
377.3726913,867311.6744615403
378.0107622,889437.8109773733
378.652418,918603.3139929018
379.2976904,955638.579789344
379.9466115,1001896.1947716784
380.5992136,1057290.8125570922
381.2555296,1121592.0578905777
381.9155926,1194068.660416863
382.5794362,1272630.1900925247
383.2470943,1355005.5152512628
383.9186014,1438012.1647764088
384.5939922,1518602.2783146405
385.2733019,1593599.309842509
385.9565661,1660271.1743510969
386.6438209,1716896.8214573956
387.3351027,1762705.619617841
388.0304484,1798021.055503056
388.7298955,1825320.536608788
389.4334817,1847249.995083664
390.1412452,1866480.0989993208
390.853225,1888454.869035096
391.56946,1916910.4052785048
392.2899901,1953753.320422316
393.0148555,1999146.9097340144
393.7440968,2052782.0277715027
394.4777551,2110519.935672675
395.2158722,2170756.48270442
395.9584903,2230518.988678328
396.7056521,2283024.3449429385
397.457401,2324917.0009856755
398.2137806,2356687.7485892638
398.9748353,2379618.2734085107
399.7406101,2396555.2924851063
400.5111505,2411544.722663464
401.2865024,2429062.774013929
402.0667126,2452059.877416368
402.8518283,2485615.869844377
403.6418973,2531939.935596036
404.436968,2591032.99663924
405.2370896,2659954.144320804
406.0423117,2735713.0676311385
406.8526847,2813611.9569706223
407.66825960000006,2889829.7874249225
408.4890879,2958143.6092825
409.3152221,3016428.51947843
410.1467152,3060751.791295715
410.9836208,3090995.2892970224
411.8259934,3106742.3989557894
412.673888,3109820.265125038
413.5273605,3102511.2705767183
414.38646760000006,3088806.622100651
415.2512664,3072051.513563892
416.1218152,3055819.4367499663
416.9981727,3044798.407507605
417.8803987,3042597.3084635213
418.7685535,3052961.0100542614
419.6626985,3080294.2740760525
420.5628957,3128793.3672926314
421.4692081,3202289.192572404
422.3816994,3305675.3513926887
423.3004343,3442720.102300405
424.2254783,3617605.996609349
425.1568978,3827412.8723257063
426.0947602,4066580.978037466
427.0391337,4327509.992646325
427.9900874,4599419.8140721
428.9476917,4872994.363355015
429.9120175,5135348.89583014
430.8831369,5372659.040015285
431.8611232,5572830.723760757
432.8460504,5727422.371160834
433.8379937,5832011.166803217
434.8370293,5886931.922359544
435.8432345,5892382.748662798
436.8566878,5852075.756722692
437.8774686,5770395.219619882
438.9056575,5654702.312076298
439.9413364,5510891.432946354
440.9845882,5352789.932278623
442.035497,5193413.467081936
443.0941482,5044850.897321492
444.1606283,4915471.860565749
445.23502520000005,4815465.450184639
446.317428,4750056.097666238
447.407927,4726317.367327329
448.5066141,4750716.782638651
449.6135822,4818126.576967799
450.7289258,4919959.242940052
451.85274060000006,5048113.814595431
452.9851239,5192931.466463831
454.1261744,5347206.208726871
455.2759921,5500957.072482855
456.4346788,5644120.131558413
457.6023374,5762721.203851355
458.7790727,5858031.513471208
459.9649909,5931383.908099498
461.1601998,5983440.560103144
462.364809,6017163.513563376
463.5789295,6034857.3972391775
464.8026741000001,6041646.009668226
466.0361575,6041776.2292136885
467.2794956999999,6041221.324624332
468.5328070000001,6041489.058560182
469.7962111000001,6041361.498154943
471.0698299,6041148.9602546375
472.3537868,6041640.877384623
473.6482074,6041613.513501817
474.9532192,6041376.915241838
476.2689517,6041341.982865139
477.5955362,6041853.723025434
478.93310639999993,6040984.024378324
480.2817979,6041902.272614306
481.6417484,6041471.749157523
483.01309800000007,6041194.58982894
484.3959889,6041486.012150254
485.7905654,6041390.662776686
487.1969743,6041360.34845783
488.6153648,6041295.302164443
490.0458884,6041665.859407413
491.488699,6041104.590584448
492.943953,6041084.045952245
494.4118094,6041403.462167684
495.8924299,6041471.291572222
497.3859785,6041719.888276001
498.8926222,6041283.243394261
500.4125306,6041513.8646122925
501.9458762,6041842.106622526
503.4928341,6041243.902068234
505.0535827,6041459.436705511
506.628303,6041331.82675978
508.2171791999999,6041605.974339231
509.8203986,6041038.217197549
511.4381515,6041633.666653171
513.0706316000001,6041443.161417304
514.7180356,6041764.779522548
516.3805639,6041401.233558415
518.0584200000001,6041334.2948446125
519.7518110000001,6041599.94511388
521.4609475999999,6041332.149746378
523.186044,6041278.094513109
524.927318,6041640.729829052
526.6849915,6041069.5799456425
528.45929,6041398.106063368
530.2504428000001,6041083.817560027
532.0586836,6041444.941249596
533.8842498,6040997.611065528
535.7273833,6041710.737402849
537.5883299,6041749.533409802
539.46734,6041537.424940915
541.3646685,6041436.287433159
543.2805745000001,6041267.897103477
545.2153222000001,6041061.479963124
547.1691801,6041329.333152386
549.1424218999999,6041501.491409938
551.1353259,6041577.2721255375
553.1481756000001,6040926.921180261
555.1812597,6041431.604959752
557.2348721,6041184.291440507
559.3093121,6041662.616390299
561.4048845,6041360.515851267
563.5218996,6041316.215128685
565.6606737000001,6041572.714247302
567.8215287,6041423.328726462
570.0047927,6041673.255946552
572.2107997,6041109.987721098
574.4398902,6041737.084008932
576.692411,6041351.556478217
578.9687155,6041516.06396322
581.2691637,6041242.689463602
583.5941226,6041511.530629692
585.943966,6041333.818259514
588.3190752,6041197.140735948
590.7198384999999,6041343.724919535
593.1466518,6041251.242942902
595.5999188999999,6041500.518776681
598.0800512,6041670.038011642
600.5874682,6041529.839740053
603.1225977000001,6041424.945032807
605.6858758999999,6041273.468564211
608.2777476,6041356.402753106
610.8986664,6041231.23716525
613.549095,6041287.006390815
616.2295054,6041532.618592259
618.940379,6041911.149184402
621.6822068,6039651.1772859525
624.4554901,6039351.07105818
627.2607402000001,6042045.032200192
630.0984786,6041964.8256130135
632.9692378999999,6041188.653357628
635.8735614,6040226.118041045
638.8120038,6041434.0014516525
641.7851312999999,6043698.24847909
644.7935217999999,6040022.52994376
647.8377654,6041613.667053687
650.9184646000001,6042137.095608396
654.0362346,6042604.490161803
657.1917038,6038765.755715385
660.3855139,6042704.757165106
663.6183202999999,6041393.405245777
703.1812034,6041331.510317459
704.2110782000001,6034408.143058947
705.2443688999999,6001476.751476896
706.2810885,5926489.240218572
707.3212499,5796553.722529887
708.3648661000001,5602613.269924725
709.41195,5340322.041612587
710.4625143999999,5008270.949836734
711.5165721,4607884.872153019
712.5741357,4156723.900602465
713.6352181,3699867.615380514
714.6998317000001,3275251.7292207074
715.7679891,2913561.1965372404
716.8397027999999,2638610.145425174
717.9149852,2463083.3367133485
718.9938487000001,2392333.2506083185
720.0763055,2424636.5527081685
721.162368,2544390.2984507373
722.2520481,2720876.6189036896
723.3453581,2924573.507941234
724.4423098,3130931.83119498
725.5429153,3319571.053113372
726.6471863,3477423.115269578
727.7551346,3597095.198525487
728.866772,3677540.313457483
729.9821099,3721703.684980215
731.1011599,3734003.150441658
732.2239335,3720256.9032198233
733.3504419,3685912.0449722833
734.4806963999999,3635004.723145312
735.6147081,3571533.822726118
736.7524882,3498804.204572731
737.8940474,3419158.277133293
739.0393967,3340101.289983452
740.1885467999999,3271222.9146600426
741.3415084,3227182.6808242938
742.498292,3227320.2178914286
743.658908,3287084.185999661
744.8233667999999,3408783.056766678
745.9916785,3594192.794851364
747.1638532000001,3840141.101026168
748.3399009,4138010.865734168
749.5198315,4471896.625601148
750.7036546,4816154.960030578
751.89138,5135017.870853708
753.0830171,5406252.302718901
754.2785752999999,5627369.349020484
755.4780638,5798713.242807322
756.6814917,5920140.045404918
757.8888678999999,5994846.022156414
759.1002014999999,6031277.724336399
760.3155009,6041422.540877156
761.5347749,6041456.116721397
762.7580318,6041363.412736865
763.98528,6041286.075991209
765.2165276000001,6041626.161114726
766.4517825,6041364.2464734325
767.6910527000001,6041606.193474527
768.9343458999999,6041345.548343788
770.1816697,6041270.78928163
771.4330313999999,6041344.87657087
772.6884382999999,6041528.459953505
773.9478975,6041371.111006471
775.211416,6041768.571698408
776.4790005,6041688.286063748
777.7506578,6041419.630934094
779.0263942,6041108.582573384
780.3062162,6041236.293611111
781.5901297,6041015.763583353
782.8781409,6041687.667570801
784.1702554999999,6041695.519285145
785.4664793,6041842.932652517
786.7668176,6041017.010751676
788.0712758,6041178.356482808
789.3798591,6041251.283727039
790.6925722999999,6041311.861557088
792.0094204,6041393.884977872
793.3304079,6041290.985439526
794.6555392000001,6041472.729320486
795.9848187000001,6041567.287435471
797.3182504,6041163.7793804975
798.6558382999999,6041579.083554664
799.9975861,6041014.559745517
801.3434973,6041133.152911719
802.6935752999999,6041374.299341513
804.0478232999999,6041627.707916914
805.4062443,6041267.702490067
806.7688411,6041746.7636660775
808.1356164,6041317.968144717
809.5065726,6041197.777924172
810.881712,6037544.896481733
812.2610367000001,6028394.59190735
813.6445485,6014816.900926956
815.0322493,5998248.768784817
816.4241404,5982416.504881337
817.8202233,5967149.80877832
819.2204991,5951036.45936847
820.6249687999999,5934797.686519957
822.0336331,5927062.981777205
823.4464925999999,5929779.4752374
824.8635477000001,5942045.484309628
826.2847987,5958121.960509658
827.7102456,5973461.706609474
829.1398882,5989882.647950089
830.5737261,6005201.513707697
832.0117589,6021290.13786632
833.4539857000001,6033398.097096953
834.9004057999999,6039936.180928725
836.3510179,6041890.608300451
837.8058209,6041188.413779288
839.2648132999999,6041467.879739725
840.7279934000001,6041280.521402918
842.1953594,6041140.164031638
843.6669092,6041515.730522771
845.1426408,6041428.60068933
846.6225517000001,6041310.586533397
848.1066392999999,6041520.939658328
849.5949009999999,6041297.197510527
851.0873337999999,6041161.849240896
852.5839347000001,6041478.900197905
854.0847002999999,6041287.716090117
855.5896273,6041251.319928652
857.0987119999999,6041367.33564489
858.6119507000001,6041499.11833986
860.1293393999999,6041329.139505252
861.650874,6041459.402341343
863.1765502000001,6041490.657432567
864.7063635,6041257.659023435
866.2403094,6041336.348469251
867.778383,6041149.03002128
869.3205793999999,6041839.850766764
870.8668935000001,6041288.739347925
872.4173199999999,6041183.783607182
873.9718536,6041532.002847607
875.5304886,6041386.940272795
877.0932193,6041328.881488076
878.6600399,6041058.234669288
880.2309443,6041762.417351128
881.8059264000001,6041203.312318431
883.3849798,6041418.003360568
884.9680981,6041429.322478843
886.5552747000002,6041397.31540148
888.1465029,6041060.210288429
889.7417757000001,6041264.359633659
891.3410862,6041602.531741967
892.9444273,6041232.975990633
894.5517916000001,6041555.92160339
896.1631719000001,6041299.317566822
897.7785605,6041622.802593856
899.3979498,6041630.69443692
901.0213321,6041283.673450068
902.6486995,6041479.290664049
904.280044,6041292.442164497
905.9153575,6041270.44394296
907.5546319,6041050.794765208
909.1978586,6041153.945523327
910.8450295,6041256.961517931
912.4961358,6041027.299609391
914.1511691,6041785.9786400935
915.8101205,6041537.5595049225
917.4729813,6041242.926993521
919.1397426,6041077.478600496
920.8103953,6041337.505155128
922.4849303,6041133.543975286
924.1633386,6041576.44108139
925.8456109,6041554.54729999
927.5317378,6041214.256195001
929.22171,6041894.412019456
930.9155179,6041482.448954918
932.6131521,6041583.984047699
934.3146028,6041736.247791188
936.0198606,6041440.082229637
937.7289155,6041409.849225984
939.4417579,6041478.336114589
941.1583779,6041314.983901771
942.8787656,6041395.1008411925
944.6029109,6041840.892728483
946.3308041,6041876.075752604
948.0624349,6040986.72776355
949.7977933,6041480.451556994
951.5368692,6041445.860766117
953.2796523,6041193.790342455
955.0261327,6041281.1139344815
956.7762999,6041352.118376207
958.5301437,6041402.989568533
960.2876539,6041168.233986389
962.0488201,6041106.01089034
963.813632,6041381.707818882
965.5820793,6040956.1186445085
967.3541517,6041766.752679353
969.1298386,6041809.955394045
970.9091298,6040680.684005692
972.6920149,6042111.601190719
974.4784835,6040792.893440379
976.2685251,6041733.956126005
978.0621293,6041590.435390086
979.8592859,6042133.465484602
981.6599843,6042873.602297604
983.4642142,6041213.157967523
985.2719651,6040836.4467942575
987.0832269,6040873.194806333
988.897989,6040841.138829352
990.7162412,6041645.679377751
992.5379731,6041289.37266297
994.3631745,6041552.363521826
996.191835,6031455.916302208
998.0239445,6001213.5884593325
999.8594926,5942307.909043522
1001.698469,5846733.8667527065
1003.540864,5707560.284899212
1005.386668,5522361.6056684535
1007.235869,5285556.154156412
1009.088458,4995908.391635535
1010.944426,4669098.888067725
1012.803762,4326423.245774676
1014.666456,3984820.096130318
1016.532498,3657840.0516418833
1018.401878,3356337.299297148
1020.274588,3091008.3925567083
1022.150616,2866481.986331553
1024.029953,2687686.6733198487
1025.912591,2545569.553534901
1027.798518,2433091.422565682
1029.687726,2340000.9985964247
1031.580205,2259862.4810585207
1033.475945,2183585.1058121133
1035.3749380000002,2107749.907593725
1037.277175,2028780.953520708
1039.182645,1942645.3150049704
1041.09134,1850905.153987476
1043.003251,1752263.8371960246
1044.918368,1648720.01310298
1046.836683,1541831.0127302962
1048.758188,1434952.265840348
1050.682872,1328869.946519811
1052.610728,1226942.3993354845
1054.541747,1132380.159601252
1056.4759210000002,1044806.0206476344
1058.41324,966826.7752076852
1060.353697,897870.1805388415
1062.297282,837964.6889393901
1064.243989,785584.795399283
1066.193809,741325.6278458548
1068.146734,703964.5906869301
1070.102755,670864.5047357813
1072.061865,641802.6148313585
1074.024056,615294.2940189933
1075.989321,590406.671789814
1077.957651,566059.7307356157
1079.92904,542356.2179932783
1081.9034800000002,518507.8847868306
1083.880963,493817.5933955719
1085.861482,469875.9860790502
1087.8450300000002,446496.0053174853
1089.8316,422639.9163826367
1091.821185,400769.2545503244
1093.8137789999998,379901.84814366815
1095.809373,360343.3140932901
1097.807962,341783.01874921826
1099.809539,325250.5982988232
1101.814098,310652.18691938143
1103.821631,297396.6705832861
1105.832134,285578.9999922994
1107.845599,275461.12799395283
1109.86202,266508.4243037332
1111.881392,258712.15499741075
1113.903708,251345.80207787163
1115.928963,245037.40914595497
1117.95715,238888.33559601448
1119.988266,232735.31006177596
1122.022303,226328.7901872597
1124.059256,219348.72089459345
1126.09912,212541.5018875947
1128.14189,205019.6022342709
1130.187561,197205.0203854668
1132.236128,188992.34282592204
1134.287585,180442.53598648915
1136.341929,172198.97541633062
1138.3991529999998,163901.43355782225
1140.459254,155589.14701926356
1142.522228,147631.50257439114
