wave,flux
306.2504509,57.69462283176959
306.5604242,94.51888665896507
306.871524,147.68526504443952
307.18375710000004,218.5960630758509
307.4971302,306.9255476375108
307.8116501,403.957626863834
308.1273236,477.79037421903536
308.4441577,562.5805640218712
308.7621594,661.6376109534573
309.0813356,767.5942574541693
309.4016935,872.4831380143654
309.7232403,1005.5284863268512
310.04598300000004,1148.2987966001272
310.369929,1290.487525108647
310.6950856,1449.620162724876
311.0214601,1624.2156533609252
311.34906010000003,1808.1186259588892
311.6778931,2010.690763961993
312.0079665,2213.704156957756
312.33928810000003,2432.1637808711257
312.6718655,2669.979757999532
313.00570639999995,2921.155026388645
313.3408189,3190.3002843465806
313.6772106,3466.934560365447
314.0148896,3757.023865932292
314.3538639,4076.991879089297
314.6941415,4394.163830291403
315.0357308,4724.565171992109
315.37863980000003,5078.615458223261
315.7228769,5432.041895231839
316.0684504,5799.867767842536
316.4153688,6182.382918032152
316.76364069999994,6547.703203888051
317.1132746,6932.365327761276
317.4642791,7307.228838299582
317.8166631,7683.411744748811
318.1704352,8073.579214684918
318.5256045,8463.156666353068
318.8821799,8846.115179303339
319.2401704,9234.031573729017
319.5995851,9614.114679314216
319.96043330000003,10012.10232973669
320.3227243,10397.28917341663
320.6864673,10797.245972353376
321.0516719,11183.331311948046
321.4183476,11584.908160212446
321.786504,12008.593113433986
322.1561508,12422.534357773073
322.5272977,12874.557287241349
322.8999548,13382.566325496276
323.2741319,14027.665177379928
323.649839,14794.745440382823
324.0270864,15712.434815277678
324.40588419999995,16803.545562986114
324.7862428,18017.52958631226
325.16817260000005,19398.992491769022
325.5516841,20922.593544666204
325.9367879,22486.52136904243
326.32349480000005,23984.26832288089
326.7118154,25421.62875279885
327.1017607,26779.055761522963
327.4933418,28061.03643600229
327.88656960000003,29299.16000568213
328.2814555,30426.75180333334
328.6780106,31480.55475947944
329.0762465,32536.49154022814
329.47617460000004,33625.60395049308
329.8778065,34777.09912530404
330.281154,35966.543360103475
330.6862289,37208.50200468664
331.0930432,38546.78290849638
331.5016088,40047.797768591074
331.911938,41691.61151779168
332.32404310000004,43566.1054126924
332.7379364,45658.15736307866
333.1536305,47963.49610361079
333.571138,50526.83363964972
333.9904716,53406.95520748785
334.4116443,56538.323000643206
334.834669,59922.89423857616
335.2595588,63463.05989119933
335.686327,67296.76902740769
336.114987,71490.82253931295
336.5455522,76015.52779411411
336.9780363,81085.28960447025
337.41245310000005,86804.12902738071
337.8488164,93352.27721619762
338.28714019999995,100776.20864823252
338.7274388,109281.91301090475
339.1697264,118934.97540925464
339.6140175,129854.23504464312
340.06032660000005,142114.22822465707
340.5086685,155838.76289773313
340.959058,170937.100446368
341.4115102,187524.89627572687
341.8660403,205762.9083405661
342.32266339999995,225742.88334907987
342.7813952,247573.88752828585
343.24225110000003,271409.6112005709
343.70524710000007,297161.10585035675
344.17039889999995,325043.67487074377
344.6377228,355029.56711267674
345.1072349,387016.3408162509
345.5789517,421035.3804789328
346.0528897,456848.7210457453
346.5290657,494267.3220498792
347.0074967,533087.6302055761
347.48819960000003,573056.6728028322
347.9711917,613974.4908027672
348.45649060000005,655631.4087197103
348.9441137,697740.5164869772
349.434079,740310.5088226486
349.9264043,782840.230213066
350.4211078,825643.4024438576
350.9182079,868205.2169258387
351.4177232,910489.3003726228
351.9196722,952519.6720432816
352.42407410000004,993859.8684590196
352.9309478,1034506.631384738
353.4403127,1073942.0339582183
353.95218839999995,1112129.5974096295
354.4665945,1148088.5506644323
354.983551,1181916.0432390592
355.503078,1212806.046719905
356.025196,1240522.0750982638
356.5499253,1264336.7080531192
357.077287,1284314.8036214642
357.6073018,1299940.5084273985
358.1399912,1311398.8191783172
358.6753765,1318686.4678083945
359.2134795,1322374.1767728066
359.754322,1322150.0007862218
360.2979263,1318794.969975651
360.8443147,1313261.2983281629
361.3935098,1306289.485271897
361.9455346,1298802.6171296616
362.5004122,1292466.2704128008
363.058166,1289203.6424294915
363.61881960000005,1292184.4756792022
364.1823969,1303821.571471391
364.7489221,1328001.575780722
365.3184196,1368436.6335832707
365.8909141,1428856.240902689
366.4664305,1512621.363950083
367.0449943,1621376.1146934724
367.6266307,1755761.1629142647
368.2113658,1913756.6544311624
368.7992255,2091607.1567534544
369.3902363,2282002.1853310587
369.9844249,2476417.0203604368
370.5818182,2664158.586024649
371.1824436,2834577.094888589
371.7863286000001,2976414.6488356376
372.3935012,3082036.0013462263
373.0039896,3143760.1449640826
373.6178223,3158939.1486118333
374.2350283,3129107.8149642465
374.8556368,3058747.8062885394
375.4796772,2957127.80435961
376.1071796,2835281.976860986
376.7381741,2705625.8369420627
377.3726913,2581554.5770285246
378.0107622,2476716.3036037376
378.652418,2401352.754046029
379.2976904,2364200.6668630475
379.9466115,2370145.5312364376
380.5992136,2422531.2142254533
381.2555296,2518908.044000226
381.9155926,2655877.1736485427
382.5794362,2824794.0102071688
383.2470943,3016826.874271712
383.9186014,3220878.6708623683
384.5939922,3424556.701792487
385.2733019,3617039.918265371
385.9565661,3789414.0878776233
386.6438209,3933297.167236162
387.3351027,4044807.309567633
388.0304484,4124893.997571184
388.7298955,4177844.949978632
389.4334817,4209272.55380867
390.1412452,4228630.606009772
390.853225,4245948.521485264
391.56946,4270636.89460283
392.2899901,4307064.639650716
393.0148555,4356513.546377176
393.7440968,4417284.648698228
394.4777551,4479547.3345587365
395.2158722,4536307.811052442
395.9584903,4578742.448553584
396.7056521,4593088.095118197
397.457401,4572118.1611711215
398.2137806,4512187.454321789
398.9748353,4417745.85625341
399.7406101,4295705.740577776
400.5111505,4155937.649001639
401.2865024,4011761.492024832
402.0667126,3873049.8493362265
402.8518283,3753040.907392148
403.6418973,3660488.744123341
404.436968,3598252.576540264
405.2370896,3565317.85282871
406.0423117,3557912.133099526
406.8526847,3567975.584246743
407.66825960000006,3587404.626515629
408.4890879,3606021.9683469865
409.3152221,3617715.136696784
410.1467152,3614818.1381457513
410.9836208,3594577.7907126043
411.8259934,3555698.2807453787
412.673888,3499685.667264278
413.5273605,3430439.4562687967
414.38646760000006,3353127.006969911
415.2512664,3274101.080692382
416.1218152,3198833.588072384
416.9981727,3134423.5740519986
417.8803987,3086736.410864384
418.7685535,3061968.1817541136
419.6626985,3064914.7126626987
420.5628957,3102355.9716105545
421.4692081,3180027.683203643
422.3816994,3303737.183507821
423.3004343,3476506.006972333
424.2254783,3694124.604902474
425.1568978,3947850.535496676
426.0947602,4229177.791905041
427.0391337,4528100.845100408
427.9900874,4829035.684435003
428.9476917,5116640.042286716
429.9120175,5372519.329675762
430.8831369,5582607.588607566
431.8611232,5747261.660298376
432.8460504,5869828.748439987
433.8379937,5955192.323578409
434.8370293,5999458.729083279
435.8432345,6003196.811923138
436.8566878,5969583.716706873
437.8774686,5906651.813933373
438.9056575,5818245.800749314
439.9413364,5704520.541650069
440.9845882,5562786.810016527
442.035497,5393399.27427984
443.0941482,5211181.572743129
444.1606283,5028890.862438696
445.23502520000005,4857477.580214567
446.317428,4703054.827098295
447.407927,4571761.293107186
448.5066141,4467482.908851703
449.6135822,4396044.789454624
450.7289258,4363465.052328765
451.85274060000006,4367682.323041591
452.9851239,4410654.584867225
454.1261744,4489986.890377571
455.2759921,4602163.937712187
456.4346788,4741796.005327729
457.6023374,4905032.200895136
458.7790727,5085106.203100062
459.9649909,5272630.6595620215
461.1601998,5455584.521599892
462.364809,5616186.609746
463.5789295,5749341.330448411
464.8026741000001,5855293.157575681
466.0361575,5935060.983786993
467.2794956999999,5990387.24048958
468.5328070000001,6023115.793176976
469.7962111000001,6037925.986315208
471.0698299,6041312.501175213
472.3537868,6041505.409612632
473.6482074,6041318.80489659
474.9532192,6041731.258185458
476.2689517,6041073.294205668
477.5955362,6041287.097226975
478.93310639999993,6041253.1645743735
480.2817979,6041360.39382937
481.6417484,6041505.2617448
483.01309800000007,6041422.967042888
484.3959889,6040947.259455191
485.7905654,6041494.221124289
487.1969743,6041549.48456495
488.6153648,6041571.581339831
490.0458884,6041197.67402063
491.488699,6041303.236024743
492.943953,6041277.910605527
494.4118094,6041111.793635175
495.8924299,6041038.5777625535
497.3859785,6041465.715065942
498.8926222,6041771.474621843
500.4125306,6041303.216124835
501.9458762,6041349.508066473
503.4928341,6041255.934448949
505.0535827,6041464.099851248
506.628303,6041168.916469848
508.2171791999999,6041639.646864218
509.8203986,6041220.393122889
511.4381515,6041307.431238392
513.0706316000001,6041238.292005875
514.7180356,6041788.9792436985
516.3805639,6041544.643421714
518.0584200000001,6041471.090332012
519.7518110000001,6041531.6397333685
521.4609475999999,6041996.415061742
523.186044,6041026.415759582
524.927318,6041801.4352896325
526.6849915,6041288.661525818
528.45929,6041173.962390483
530.2504428000001,6041715.184871111
532.0586836,6041463.936994703
533.8842498,6041378.846899793
535.7273833,6041406.273002118
537.5883299,6041681.654465877
539.46734,6041205.8274271935
541.3646685,6040138.374057835
543.2805745000001,6032878.617422522
545.2153222000001,6014591.027273968
547.1691801,5984098.734027384
549.1424218999999,5938879.401754308
551.1353259,5879271.717493165
553.1481756000001,5807083.109307739
555.1812597,5724489.879060779
557.2348721,5638640.855870063
559.3093121,5561735.991760617
561.4048845,5505060.210728033
563.5218996,5474769.876898208
565.6606737000001,5473733.568395982
567.8215287,5501270.620617135
570.0047927,5554017.096128881
572.2107997,5626485.872450802
574.4398902,5709125.616346237
576.692411,5789619.813105491
578.9687155,5858532.291951126
581.2691637,5913948.924819564
583.5941226,5954260.577579373
585.943966,5980199.9426859375
588.3190752,5993524.305753111
590.7198384999999,5997750.525837194
593.1466518,5998518.201916412
595.5999188999999,6000030.675603619
598.0800512,6005030.347986815
600.5874682,6010530.277439085
603.1225977000001,6016382.880602086
605.6858758999999,6022631.5951781785
608.2777476,6029318.826122174
610.8986664,6034342.58181036
613.549095,6038331.518557779
616.2295054,6041024.076769919
618.940379,6041351.562973684
621.6822068,6041435.337778736
624.4554901,6041982.488991442
627.2607402000001,6040505.272925459
630.0984786,6040818.344165333
632.9692378999999,6041101.568839298
635.8735614,6041365.23493987
638.8120038,6042199.083541008
641.7851312999999,6040956.915538018
644.7935217999999,6041981.138407183
647.8377654,6038932.028375513
650.9184646000001,6041763.862703607
654.0362346,6042872.304249009
657.1917038,6043364.141507585
660.3855139,6041081.284555852
663.6183202999999,6040518.043468531
666.8907926,6042522.464310112
670.2036149,6042096.8923010025
673.557486,6041424.180843073
760.3155009,6041422.540877156
761.5347749,6041456.116721397
762.7580318,6041363.412736865
763.98528,6041286.075991209
765.2165276000001,6041626.161114726
766.4517825,6041364.2464734325
767.6910527000001,6041606.193474527
768.9343458999999,6041345.548343788
770.1816697,6041270.78928163
771.4330313999999,6041344.87657087
772.6884382999999,6041528.459953505
773.9478975,6041371.111006471
775.211416,6041768.571698408
776.4790005,6041688.286063748
777.7506578,6041419.630934094
779.0263942,6041108.582573384
780.3062162,6041236.293611111
781.5901297,6041015.763583353
782.8781409,6041687.667570801
784.1702554999999,6041695.519285145
785.4664793,6041842.932652517
786.7668176,6041017.010751676
788.0712758,6041178.356482808
789.3798591,6041251.283727039
790.6925722999999,6041311.861557088
792.0094204,6041393.884977872
793.3304079,6041290.985439526
794.6555392000001,6041472.729320486
795.9848187000001,6041567.287435471
797.3182504,6041163.7793804975
798.6558382999999,6041579.083554664
799.9975861,6041014.559745517
801.3434973,6041133.152911719
802.6935752999999,6041374.299341513
804.0478232999999,6041627.707916914
805.4062443,6041267.702490067
806.7688411,6041746.7636660775
808.1356164,6041317.968144717
809.5065726,6041197.777924172
810.881712,6037544.896481733
812.2610367000001,6028394.59190735
813.6445485,6014816.900926956
815.0322493,5998248.768784817
816.4241404,5982416.504881337
817.8202233,5967149.80877832
819.2204991,5951036.45936847
820.6249687999999,5934797.686519957
822.0336331,5927062.981777205
823.4464925999999,5929779.4752374
824.8635477000001,5942045.484309628
826.2847987,5958121.960509658
827.7102456,5973461.706609474
829.1398882,5989882.647950089
830.5737261,6005201.513707697
832.0117589,6021290.13786632
833.4539857000001,6033398.097096953
834.9004057999999,6039936.180928725
836.3510179,6041890.608300451
837.8058209,6041188.413779288
839.2648132999999,6041467.879739725
840.7279934000001,6041280.521402918
842.1953594,6041140.164031638
843.6669092,6041515.730522771
845.1426408,6041428.60068933
846.6225517000001,6041310.586533397
848.1066392999999,6041520.939658328
849.5949009999999,6041297.197510527
851.0873337999999,6041161.849240896
852.5839347000001,6041478.900197905
854.0847002999999,6041287.716090117
855.5896273,6041251.319928652
857.0987119999999,6041367.33564489
858.6119507000001,6041499.11833986
860.1293393999999,6041329.139505252
861.650874,6041459.402341343
863.1765502000001,6041490.657432567
864.7063635,6041257.659023435
866.2403094,6041336.348469251
867.778383,6041149.03002128
869.3205793999999,6041839.850766764
870.8668935000001,6041288.739347925
872.4173199999999,6041183.783607182
873.9718536,6041532.002847607
875.5304886,6041386.940272795
877.0932193,6041328.881488076
878.6600399,6041058.234669288
880.2309443,6041762.417351128
881.8059264000001,6041203.312318431
883.3849798,6041418.003360568
884.9680981,6041429.322478843
886.5552747000002,6041397.31540148
888.1465029,6041060.210288429
889.7417757000001,6041264.359633659
891.3410862,6041602.531741967
892.9444273,6041232.975990633
894.5517916000001,6041555.92160339
896.1631719000001,6041299.317566822
897.7785605,6041622.802593856
899.3979498,6041630.69443692
901.0213321,6041283.673450068
902.6486995,6041479.290664049
904.280044,6041292.442164497
905.9153575,6041270.44394296
907.5546319,6041050.794765208
909.1978586,6041153.945523327
910.8450295,6041256.961517931
912.4961358,6041027.299609391
914.1511691,6041785.9786400935
915.8101205,6041537.5595049225
917.4729813,6041242.926993521
919.1397426,6041077.478600496
920.8103953,6041337.505155128
922.4849303,6041133.543975286
924.1633386,6041576.44108139
925.8456109,6041554.54729999
927.5317378,6041214.256195001
929.22171,6041894.412019456
930.9155179,6041482.448954918
932.6131521,6041583.984047699
934.3146028,6041736.247791188
936.0198606,6041440.082229637
937.7289155,6041409.849225984
939.4417579,6041478.336114589
941.1583779,6041314.983901771
942.8787656,6041395.1008411925
944.6029109,6041840.892728483
946.3308041,6041876.075752604
948.0624349,6040986.72776355
949.7977933,6041480.451556994
951.5368692,6041445.860766117
953.2796523,6041193.790342455
955.0261327,6041281.1139344815
956.7762999,6041352.118376207
958.5301437,6041402.989568533
960.2876539,6041168.233986389
962.0488201,6041106.01089034
963.813632,6041381.707818882
965.5820793,6040956.1186445085
967.3541517,6041766.752679353
969.1298386,6041809.955394045
970.9091298,6040680.684005692
972.6920149,6042111.601190719
974.4784835,6040792.893440379
976.2685251,6041733.956126005
978.0621293,6041590.435390086
979.8592859,6042133.465484602
981.6599843,6042873.602297604
983.4642142,6041213.157967523
985.2719651,6040836.4467942575
987.0832269,6040873.194806333
988.897989,6040841.138829352
990.7162412,6041645.679377751
992.5379731,6041289.37266297
994.3631745,6041552.363521826
996.191835,6031455.916302208
998.0239445,6001213.5884593325
999.8594926,5942307.909043522
1001.698469,5846733.8667527065
1003.540864,5707560.284899212
1005.386668,5522361.6056684535
1007.235869,5285556.154156412
1009.088458,4995908.391635535
1010.944426,4669098.888067725
1012.803762,4326423.245774676
1014.666456,3984820.096130318
1016.532498,3657840.0516418833
1018.401878,3356337.299297148
1020.274588,3091008.3925567083
1022.150616,2866481.986331553
1024.029953,2687686.6733198487
1025.912591,2545569.553534901
1027.798518,2433091.422565682
1029.687726,2340000.9985964247
1031.580205,2259862.4810585207
1033.475945,2183585.1058121133
1035.3749380000002,2107749.907593725
1037.277175,2028780.953520708
1039.182645,1942645.3150049704
1041.09134,1850905.153987476
1043.003251,1752263.8371960246
1044.918368,1648720.01310298
1046.836683,1541831.0127302962
1048.758188,1434952.265840348
1050.682872,1328869.946519811
1052.610728,1226942.3993354845
1054.541747,1132380.159601252
1056.4759210000002,1044806.0206476344
1058.41324,966826.7752076852
1060.353697,897870.1805388415
1062.297282,837964.6889393901
1064.243989,785584.795399283
1066.193809,741325.6278458548
1068.146734,703964.5906869301
1070.102755,670864.5047357813
1072.061865,641802.6148313585
1074.024056,615294.2940189933
1075.989321,590406.671789814
1077.957651,566059.7307356157
1079.92904,542356.2179932783
1081.9034800000002,518507.8847868306
1083.880963,493817.5933955719
1085.861482,469875.9860790502
1087.8450300000002,446496.0053174853
1089.8316,422639.9163826367
1091.821185,400769.2545503244
1093.8137789999998,379901.84814366815
1095.809373,360343.3140932901
1097.807962,341783.01874921826
1099.809539,325250.5982988232
1101.814098,310652.18691938143
1103.821631,297396.6705832861
1105.832134,285578.9999922994
1107.845599,275461.12799395283
1109.86202,266508.4243037332
1111.881392,258712.15499741075
1113.903708,251345.80207787163
1115.928963,245037.40914595497
1117.95715,238888.33559601448
1119.988266,232735.31006177596
1122.022303,226328.7901872597
1124.059256,219348.72089459345
1126.09912,212541.5018875947
1128.14189,205019.6022342709
1130.187561,197205.0203854668
1132.236128,188992.34282592204
1134.287585,180442.53598648915
1136.341929,172198.97541633062
1138.3991529999998,163901.43355782225
1140.459254,155589.14701926356
1142.522228,147631.50257439114
1144.588069,140017.6072228972
1146.6567730000002,132604.9878781259
1148.728337,125664.53389932936
1150.802756,118926.77871582856
1152.880025,112302.5863227754
1154.960142,105860.81381300966
1157.043103,99446.37039489944
1159.128903,93308.00917405692
1161.217539,87384.42086161932
1163.309007,81446.36604983735
1165.403305,75391.91808117897
1167.500429,69343.81079705039
1169.600375,63448.71508168357
1171.703141,57687.35696417806
1173.808724,51772.028966136575
1175.9171199999998,46098.354691574095
1178.028327,40262.24369235116
1180.142342,34650.68153993727
1182.2591630000002,29336.24254210216
1184.378787,24450.69686183541
1186.501211,19798.995204551684
1188.626434,15690.475154136702
1190.754453,12010.928876102496
1192.885266,8794.351837598557
1195.018872,6188.578361664267
1197.155267,4185.7302964075625
1199.294451,2657.7304899958144
1201.436421,1525.880264569768
1203.581177,804.9783857899585
1205.728716,329.32113077714746
1207.879037,73.28567018869207
1210.032139,2.5116853732356166
1212.1880199999998,-6.545044264506767
1214.34668,-0.2076672610613938
1216.508117,4.5116879438961455
1218.67233,-2.1929967754893065
1220.839319,-0.9587820112067558
1223.009083,0.4764751871373476
1225.1816210000002,-0.2515315835732376
1227.356932,-2.942075625240565
1229.535016,-6.376624288917313
1231.715873,-1.1855032370778793
1233.899503,-3.183612969376415
1236.0859039999998,0.1226917768037316
1238.275078,-0.9949809951901354
1240.467024,1.6575890370992097
1242.661741,-2.4937782293025768
