wave,flux
306.2504509,34.05930002810895
306.5604242,61.04632122356187
306.871524,87.01333940210094
307.18375710000004,121.52563201721658
307.4971302,175.57098904621108
307.8116501,237.56629946991225
308.1273236,277.3462729473256
308.4441577,320.74609687799887
308.7621594,381.7450247130077
309.0813356,435.4339609653321
309.4016935,504.459036380614
309.7232403,573.6027529631896
310.04598300000004,659.9878210041899
310.369929,742.0869374744278
310.6950856,837.1803194775896
311.0214601,928.2000885545044
311.34906010000003,1037.8860265702567
311.6778931,1150.745805969148
312.0079665,1271.3246148090857
312.33928810000003,1405.7951336947326
312.6718655,1540.8049735644431
313.00570639999995,1697.294727850533
313.3408189,1858.9273799301457
313.6772106,2043.686720125578
314.0148896,2239.2173157705406
314.3538639,2445.211004649444
314.6941415,2681.074392172184
315.0357308,2933.614569933304
315.37863980000003,3186.782367398655
315.7228769,3454.9075427642656
316.0684504,3741.9925736762457
316.4153688,4022.3583895009633
316.76364069999994,4318.203944876861
317.1132746,4602.812396108719
317.4642791,4885.620269943338
317.8166631,5179.258221385779
318.1704352,5465.276425227935
318.5256045,5755.728912802712
318.8821799,6036.265851838611
319.2401704,6323.881785897322
319.5995851,6614.003374945161
319.96043330000003,6905.448926699261
320.3227243,7194.860079412762
320.6864673,7483.307931243921
321.0516719,7774.487956548946
321.4183476,8069.229492961746
321.786504,8378.931462264192
322.1561508,8673.280840640387
322.5272977,8980.121471292234
322.8999548,9301.080434641686
323.2741319,9652.523871414509
323.649839,10001.91666150942
324.0270864,10387.645871299434
324.40588419999995,10787.29894418876
324.7862428,11218.74148075012
325.16817260000005,11671.193929128623
325.5516841,12148.18271999299
325.9367879,12648.199066387093
326.32349480000005,13162.299382766789
326.7118154,13696.097606273885
327.1017607,14251.5986256188
327.4933418,14816.583942812473
327.88656960000003,15391.654298691252
328.2814555,15974.23578413252
328.6780106,16594.718009607324
329.0762465,17209.492807769497
329.47617460000004,17850.761649542677
329.8778065,18526.94242754093
330.281154,19251.854391111145
330.6862289,20001.98105324693
331.0930432,20802.736521818668
331.5016088,21696.33354944123
331.911938,22698.977927252457
332.32404310000004,23827.83175426755
332.7379364,25064.331576011293
333.1536305,26441.557614749152
333.571138,27954.88490699957
333.9904716,29635.965986406187
334.4116443,31480.815814468213
334.834669,33443.653829881514
335.2595588,35554.443864280336
335.686327,37822.86313193452
336.114987,40283.83938604566
336.5455522,42989.52230026143
336.9780363,45998.3283754581
337.41245310000005,49427.53389051288
337.8488164,53331.231986966726
338.28714019999995,57794.39173239501
338.7274388,62874.526327702406
339.1697264,68598.23386375309
339.6140175,75065.25689339642
340.06032660000005,82315.37369095253
340.5086685,90324.84972706815
340.959058,99038.77908721568
341.4115102,108584.41558393971
341.8660403,118960.26490456736
342.32266339999995,130332.20005795776
342.7813952,142632.70137313346
343.24225110000003,156022.82468533574
343.70524710000007,170509.44621314926
344.17039889999995,186167.55220825507
344.6377228,203109.9353162731
345.1072349,221234.03224130973
345.5789517,240702.81161278443
346.0528897,261284.1170256179
346.5290657,282934.07691649057
347.0074967,305707.68257648434
347.48819960000003,329455.126957876
347.9711917,354149.13030783867
348.45649060000005,379720.2202673514
348.9441137,406164.4390123076
349.434079,433538.3145930076
349.9264043,462119.775537958
350.4211078,491776.48272812745
350.9182079,522786.6818693188
351.4177232,555272.8301012827
351.9196722,589286.0613481634
352.42407410000004,624726.3503048964
352.9309478,661610.0996966019
353.4403127,699483.2485759633
353.95218839999995,737882.3155524308
354.4665945,776116.4388874947
354.983551,813772.8776343865
355.503078,849505.8563660806
356.025196,882800.2476275936
356.5499253,912805.0148811344
357.077287,938682.1284722995
357.6073018,960167.6089850508
358.1399912,976656.4772150835
358.6753765,988141.7190442266
359.2134795,994874.4789649516
359.754322,996761.1438310927
360.2979263,994262.370104174
360.8443147,987750.562160983
361.3935098,977978.5315434692
361.9455346,965202.4351951472
362.5004122,949748.9271915908
363.058166,932494.3254401176
363.61881960000005,913737.1732493092
364.1823969,894272.246159993
364.7489221,874703.9632709514
365.3184196,856056.2512851133
365.8909141,838923.6810136656
366.4664305,823933.1322787356
367.0449943,812045.3651038443
367.6266307,803655.9038217723
368.2113658,799154.960532513
368.7992255,798769.6354669322
369.3902363,802007.4137024527
369.9844249,809084.8624568556
370.5818182,818897.7600528698
371.1824436,831090.5518927828
371.7863286000001,844712.6201388383
372.3935012,858887.2942270619
373.0039896,873115.7532919189
373.6178223,887028.1539599431
374.2350283,900655.1485165338
374.8556368,914196.6114121084
375.4796772,928776.701827386
376.1071796,945879.403566328
376.7381741,967181.5456251124
377.3726913,994766.6525674608
378.0107622,1030915.266491562
378.652418,1077724.242850771
379.2976904,1137537.4897657984
379.9466115,1211327.9524086558
380.5992136,1299635.8808028472
381.2555296,1401904.5569400575
381.9155926,1516426.4812359216
382.5794362,1641052.1359903554
383.2470943,1772062.9874397332
383.9186014,1905071.7184731704
384.5939922,2035483.4507875848
385.2733019,2159023.257468126
385.9565661,2272241.859696014
386.6438209,2372948.7403201787
387.3351027,2460376.6673964304
388.0304484,2535565.6598345977
388.7298955,2601618.2783699133
389.4334817,2662504.5878724023
390.1412452,2722081.5398250604
390.853225,2786710.673193381
391.56946,2860181.887617734
392.2899901,2943529.881641942
393.0148555,3035106.8633564506
393.7440968,3131678.3371141665
394.4777551,3226141.543280724
395.2158722,3312062.9221747587
395.9584903,3384098.181508455
396.7056521,3432001.4383048923
397.457401,3451851.3689860376
398.2137806,3442297.2172245714
398.9748353,3408066.35111156
399.7406101,3354416.9038098278
400.5111505,3290487.9675473017
401.2865024,3225016.9982533576
402.0667126,3166226.280042125
402.8518283,3124425.0234278315
403.6418973,3103904.746399397
404.436968,3107661.0284336708
405.2370896,3133312.9680358213
406.0423117,3177284.925863175
406.8526847,3231835.224097772
407.66825960000006,3290694.467470813
408.4890879,3346132.9774109987
409.3152221,3391651.8771002693
410.1467152,3422215.873478352
410.9836208,3435721.4366563368
411.8259934,3431250.9362716163
412.673888,3410711.485861801
413.5273605,3377339.3798277443
414.38646760000006,3336561.8338755
415.2512664,3292954.1992367213
416.1218152,3251561.9619280705
416.9981727,3218637.157925031
417.8803987,3199210.0715853325
418.7685535,3197692.450502218
419.6626985,3220100.9111234364
420.5628957,3271466.382073205
421.4692081,3358007.379370312
422.3816994,3484417.882256512
423.3004343,3654533.978110237
424.2254783,3863533.255446273
425.1568978,4104986.681283832
426.0947602,4370479.433287052
427.0391337,4649456.95020459
427.9900874,4930002.4267438585
428.9476917,5196364.016328185
429.9120175,5431968.352974242
430.8831369,5624520.24043659
431.8611232,5775683.160301317
432.8460504,5887510.722453669
433.8379937,5964261.823982505
434.8370293,6004314.962838207
435.8432345,6008659.320713422
436.8566878,5981462.293126471
437.8774686,5928207.828464876
438.9056575,5855671.2784337215
439.9413364,5762318.840406506
440.9845882,5647790.813827927
442.035497,5513748.369509216
443.0941482,5373446.638172115
444.1606283,5241870.913085036
445.23502520000005,5128883.760975239
446.317428,5043834.612311044
447.407927,4996649.768235057
448.5066141,4989610.029895728
449.6135822,5024402.326637144
450.7289258,5098493.381520218
451.85274060000006,5204178.742075745
452.9851239,5329823.052468837
454.1261744,5465848.9845244605
455.2759921,5599473.501202143
456.4346788,5720602.436845044
457.6023374,5820879.631547282
458.7790727,5900735.812229604
459.9649909,5960246.721255112
461.1601998,6001616.068905688
462.364809,6026456.209656757
463.5789295,6038272.506119346
464.8026741000001,6041291.314219676
466.0361575,6041351.539135501
467.2794956999999,6041363.305864697
468.5328070000001,6041402.224559931
469.7962111000001,6041330.670051076
471.0698299,6041465.368009372
472.3537868,6041040.748673528
473.6482074,6041439.611954628
474.9532192,6041412.214026085
476.2689517,6040959.124117416
477.5955362,6041514.295977442
478.93310639999993,6041550.524818699
480.2817979,6041212.471597143
481.6417484,6041502.581857298
483.01309800000007,6041311.230792012
484.3959889,6041216.706673423
485.7905654,6041500.481721032
487.1969743,6041738.506041682
488.6153648,6041497.532879578
490.0458884,6041449.2899362985
491.488699,6041358.575493103
492.943953,6041428.041270905
494.4118094,6041597.493012957
495.8924299,6041839.713012583
497.3859785,6041789.322395419
498.8926222,6041302.706989631
500.4125306,6041536.626442812
501.9458762,6041267.613289368
503.4928341,6041560.102218996
505.0535827,6041775.977328481
506.628303,6041448.644279468
508.2171791999999,6041787.54450637
509.8203986,6041685.0041155135
511.4381515,6041266.458029584
513.0706316000001,6041365.400845706
514.7180356,6041461.089541211
516.3805639,6041345.782881162
518.0584200000001,6041727.313899993
519.7518110000001,6041277.399486237
521.4609475999999,6041441.08993291
523.186044,6041624.540883035
524.927318,6041224.723994883
526.6849915,6041805.120581417
528.45929,6041764.831701278
530.2504428000001,6040834.618783246
532.0586836,6041693.616698867
533.8842498,6041277.60920991
535.7273833,6041612.543578478
537.5883299,6041783.372560998
539.46734,6041034.0369875375
541.3646685,6041415.215813738
543.2805745000001,6040844.799302587
545.2153222000001,6041158.582678585
547.1691801,6041690.883409351
549.1424218999999,6041655.248784175
551.1353259,6041070.200183108
553.1481756000001,6041240.496784513
555.1812597,6041418.942377984
557.2348721,6041162.813054808
559.3093121,6041041.701417637
561.4048845,6041654.050943253
563.5218996,6041211.995715205
565.6606737000001,6041459.216740143
567.8215287,6041481.197894105
570.0047927,6041518.342448788
572.2107997,6041691.831573823
574.4398902,6041250.10498196
576.692411,6041338.979987644
578.9687155,6041670.703245888
581.2691637,6041405.645152927
583.5941226,6041078.718003146
585.943966,6041790.946188942
588.3190752,6040992.032213937
590.7198384999999,6041422.777069297
593.1466518,6041768.559288064
595.5999188999999,6041460.804732657
598.0800512,6041366.344324958
600.5874682,6040918.8850148525
603.1225977000001,6041328.636668491
605.6858758999999,6041358.993620563
608.2777476,6041896.758144439
610.8986664,6041552.201926015
613.549095,6041602.717650096
616.2295054,6040954.843796317
618.940379,6040947.098035823
621.6822068,6042623.299589288
624.4554901,6041276.486251879
627.2607402000001,6040113.415404173
630.0984786,6040472.3413524525
632.9692378999999,6042055.662814783
635.8735614,6041058.551254978
638.8120038,6040006.18059716
641.7851312999999,6040690.78455661
644.7935217999999,6040749.415812849
647.8377654,6040791.612666414
650.9184646000001,6041959.939039605
654.0362346,6042021.048566186
657.1917038,6039430.232299662
660.3855139,6041270.190966073
663.6183202999999,6042477.513266719
666.8907926,6040408.244344179
670.2036149,6041365.051231788
673.557486,6026740.5445554415
676.9531202000001,5988190.728814794
680.3912472999999,5913156.473666046
683.8726131,5808521.516580264
687.3979803,5670948.941631437
690.9681281000001,5500651.7938047815
694.5838534,5296791.930585974
698.2459709,5060776.088696753
701.9553139,4817830.178185106
705.7127343,4587377.1623182185
709.5191037000001,4376261.608586884
713.3753136,4183668.388175274
717.282276,3995643.375627212
721.2409241,3806462.647740704
725.2522127999999,3611235.397725232
729.3171195,3408771.077709267
744.8233667999999,3408783.056766678
745.9916785,3594192.794851364
747.1638532000001,3840141.101026168
748.3399009,4138010.865734168
749.5198315,4471896.625601148
750.7036546,4816154.960030578
751.89138,5135017.870853708
753.0830171,5406252.302718901
754.2785752999999,5627369.349020484
755.4780638,5798713.242807322
756.6814917,5920140.045404918
757.8888678999999,5994846.022156414
759.1002014999999,6031277.724336399
760.3155009,6041422.540877156
761.5347749,6041456.116721397
762.7580318,6041363.412736865
763.98528,6041286.075991209
765.2165276000001,6041626.161114726
766.4517825,6041364.2464734325
767.6910527000001,6041606.193474527
768.9343458999999,6041345.548343788
770.1816697,6041270.78928163
771.4330313999999,6041344.87657087
772.6884382999999,6041528.459953505
773.9478975,6041371.111006471
775.211416,6041768.571698408
776.4790005,6041688.286063748
777.7506578,6041419.630934094
779.0263942,6041108.582573384
780.3062162,6041236.293611111
781.5901297,6041015.763583353
782.8781409,6041687.667570801
784.1702554999999,6041695.519285145
785.4664793,6041842.932652517
786.7668176,6041017.010751676
788.0712758,6041178.356482808
789.3798591,6041251.283727039
790.6925722999999,6041311.861557088
792.0094204,6041393.884977872
793.3304079,6041290.985439526
794.6555392000001,6041472.729320486
795.9848187000001,6041567.287435471
797.3182504,6041163.7793804975
798.6558382999999,6041579.083554664
799.9975861,6041014.559745517
801.3434973,6041133.152911719
802.6935752999999,6041374.299341513
804.0478232999999,6041627.707916914
805.4062443,6041267.702490067
806.7688411,6041746.7636660775
808.1356164,6041317.968144717
809.5065726,6041197.777924172
810.881712,6037544.896481733
812.2610367000001,6028394.59190735
813.6445485,6014816.900926956
815.0322493,5998248.768784817
816.4241404,5982416.504881337
817.8202233,5967149.80877832
819.2204991,5951036.45936847
820.6249687999999,5934797.686519957
822.0336331,5927062.981777205
823.4464925999999,5929779.4752374
824.8635477000001,5942045.484309628
826.2847987,5958121.960509658
827.7102456,5973461.706609474
829.1398882,5989882.647950089
830.5737261,6005201.513707697
832.0117589,6021290.13786632
833.4539857000001,6033398.097096953
834.9004057999999,6039936.180928725
836.3510179,6041890.608300451
837.8058209,6041188.413779288
839.2648132999999,6041467.879739725
840.7279934000001,6041280.521402918
842.1953594,6041140.164031638
843.6669092,6041515.730522771
845.1426408,6041428.60068933
846.6225517000001,6041310.586533397
848.1066392999999,6041520.939658328
849.5949009999999,6041297.197510527
851.0873337999999,6041161.849240896
852.5839347000001,6041478.900197905
854.0847002999999,6041287.716090117
855.5896273,6041251.319928652
857.0987119999999,6041367.33564489
858.6119507000001,6041499.11833986
860.1293393999999,6041329.139505252
861.650874,6041459.402341343
863.1765502000001,6041490.657432567
864.7063635,6041257.659023435
866.2403094,6041336.348469251
867.778383,6041149.03002128
869.3205793999999,6041839.850766764
870.8668935000001,6041288.739347925
872.4173199999999,6041183.783607182
873.9718536,6041532.002847607
875.5304886,6041386.940272795
877.0932193,6041328.881488076
878.6600399,6041058.234669288
880.2309443,6041762.417351128
881.8059264000001,6041203.312318431
883.3849798,6041418.003360568
884.9680981,6041429.322478843
886.5552747000002,6041397.31540148
888.1465029,6041060.210288429
889.7417757000001,6041264.359633659
891.3410862,6041602.531741967
892.9444273,6041232.975990633
894.5517916000001,6041555.92160339
896.1631719000001,6041299.317566822
897.7785605,6041622.802593856
899.3979498,6041630.69443692
901.0213321,6041283.673450068
902.6486995,6041479.290664049
904.280044,6041292.442164497
905.9153575,6041270.44394296
907.5546319,6041050.794765208
909.1978586,6041153.945523327
910.8450295,6041256.961517931
912.4961358,6041027.299609391
914.1511691,6041785.9786400935
915.8101205,6041537.5595049225
917.4729813,6041242.926993521
919.1397426,6041077.478600496
920.8103953,6041337.505155128
922.4849303,6041133.543975286
924.1633386,6041576.44108139
925.8456109,6041554.54729999
927.5317378,6041214.256195001
929.22171,6041894.412019456
930.9155179,6041482.448954918
932.6131521,6041583.984047699
934.3146028,6041736.247791188
936.0198606,6041440.082229637
937.7289155,6041409.849225984
939.4417579,6041478.336114589
941.1583779,6041314.983901771
942.8787656,6041395.1008411925
944.6029109,6041840.892728483
946.3308041,6041876.075752604
948.0624349,6040986.72776355
949.7977933,6041480.451556994
951.5368692,6041445.860766117
953.2796523,6041193.790342455
955.0261327,6041281.1139344815
956.7762999,6041352.118376207
958.5301437,6041402.989568533
960.2876539,6041168.233986389
962.0488201,6041106.01089034
963.813632,6041381.707818882
965.5820793,6040956.1186445085
967.3541517,6041766.752679353
969.1298386,6041809.955394045
970.9091298,6040680.684005692
972.6920149,6042111.601190719
974.4784835,6040792.893440379
976.2685251,6041733.956126005
978.0621293,6041590.435390086
979.8592859,6042133.465484602
981.6599843,6042873.602297604
983.4642142,6041213.157967523
985.2719651,6040836.4467942575
987.0832269,6040873.194806333
988.897989,6040841.138829352
990.7162412,6041645.679377751
992.5379731,6041289.37266297
994.3631745,6041552.363521826
996.191835,6031455.916302208
998.0239445,6001213.5884593325
999.8594926,5942307.909043522
1001.698469,5846733.8667527065
1003.540864,5707560.284899212
1005.386668,5522361.6056684535
1007.235869,5285556.154156412
1009.088458,4995908.391635535
1010.944426,4669098.888067725
1012.803762,4326423.245774676
1014.666456,3984820.096130318
1016.532498,3657840.0516418833
1018.401878,3356337.299297148
1020.274588,3091008.3925567083
1022.150616,2866481.986331553
1024.029953,2687686.6733198487
1025.912591,2545569.553534901
1027.798518,2433091.422565682
1029.687726,2340000.9985964247
1031.580205,2259862.4810585207
1033.475945,2183585.1058121133
1035.3749380000002,2107749.907593725
1037.277175,2028780.953520708
1039.182645,1942645.3150049704
1041.09134,1850905.153987476
1043.003251,1752263.8371960246
1044.918368,1648720.01310298
1046.836683,1541831.0127302962
1048.758188,1434952.265840348
1050.682872,1328869.946519811
1052.610728,1226942.3993354845
1054.541747,1132380.159601252
1056.4759210000002,1044806.0206476344
1058.41324,966826.7752076852
1060.353697,897870.1805388415
1062.297282,837964.6889393901
1064.243989,785584.795399283
1066.193809,741325.6278458548
1068.146734,703964.5906869301
1070.102755,670864.5047357813
1072.061865,641802.6148313585
1074.024056,615294.2940189933
1075.989321,590406.671789814
1077.957651,566059.7307356157
1079.92904,542356.2179932783
1081.9034800000002,518507.8847868306
1083.880963,493817.5933955719
1085.861482,469875.9860790502
1087.8450300000002,446496.0053174853
1089.8316,422639.9163826367
1091.821185,400769.2545503244
1093.8137789999998,379901.84814366815
1095.809373,360343.3140932901
1097.807962,341783.01874921826
1099.809539,325250.5982988232
1101.814098,310652.18691938143
1103.821631,297396.6705832861
1105.832134,285578.9999922994
1107.845599,275461.12799395283
1109.86202,266508.4243037332
1111.881392,258712.15499741075
1113.903708,251345.80207787163
1115.928963,245037.40914595497
1117.95715,238888.33559601448
1119.988266,232735.31006177596
1122.022303,226328.7901872597
1124.059256,219348.72089459345
1126.09912,212541.5018875947
1128.14189,205019.6022342709
1130.187561,197205.0203854668
1132.236128,188992.34282592204
1134.287585,180442.53598648915
1136.341929,172198.97541633062
1138.3991529999998,163901.43355782225
1140.459254,155589.14701926356
1142.522228,147631.50257439114
1144.588069,140017.6072228972
1146.6567730000002,132604.9878781259
1148.728337,125664.53389932936
1150.802756,118926.77871582856
1152.880025,112302.5863227754
1154.960142,105860.81381300966
1157.043103,99446.37039489944
1159.128903,93308.00917405692
1161.217539,87384.42086161932
1163.309007,81446.36604983735
1165.403305,75391.91808117897
1167.500429,69343.81079705039
1169.600375,63448.71508168357
1171.703141,57687.35696417806
1173.808724,51772.028966136575
1175.9171199999998,46098.354691574095
1178.028327,40262.24369235116
1180.142342,34650.68153993727
1182.2591630000002,29336.24254210216
1184.378787,24450.69686183541
