wave,flux
306.2504509,42.94606181938305
306.5604242,64.85782100791545
306.871524,104.1461497233909
307.18375710000004,146.22986482669668
307.4971302,199.40201936756512
307.8116501,266.4312513161026
308.1273236,316.84672985917507
308.4441577,380.89041275042894
308.7621594,440.2267071221671
309.0813356,507.9949725519487
309.4016935,585.0083401950461
309.7232403,663.2525633611897
310.04598300000004,761.2362708432004
310.369929,858.6772723668569
310.6950856,961.4392101920216
311.0214601,1077.427231796282
311.34906010000003,1203.3154648296854
311.6778931,1332.112039159393
312.0079665,1472.8285466942484
312.33928810000003,1619.7340776951469
312.6718655,1777.6389197434644
313.00570639999995,1948.3855086541887
313.3408189,2120.8460469357706
313.6772106,2300.98365000179
314.0148896,2495.430627589756
314.3538639,2692.6500490239564
314.6941415,2905.966822806589
315.0357308,3115.8606098700543
315.37863980000003,3329.912914585488
315.7228769,3554.9560566988507
316.0684504,3785.211732326616
316.4153688,4019.739962010853
316.76364069999994,4254.788516489321
317.1132746,4502.031673167115
317.4642791,4754.262435879862
317.8166631,5009.457390610788
318.1704352,5260.876917867489
318.5256045,5526.760462897364
318.8821799,5789.619373180379
319.2401704,6067.320559170636
319.5995851,6335.538783414616
319.96043330000003,6612.570462338715
320.3227243,6890.269416638651
320.6864673,7164.1689310064185
321.0516719,7448.96890884976
321.4183476,7755.526944459379
321.786504,8053.305010006587
322.1561508,8361.371928654213
322.5272977,8677.055643798956
322.8999548,9025.378628722388
323.2741319,9393.351688574205
323.649839,9784.821222802084
324.0270864,10218.582923200942
324.40588419999995,10668.728764959642
324.7862428,11174.762512515515
325.16817260000005,11690.553069588976
325.5516841,12233.080214113072
325.9367879,12806.345414797
326.32349480000005,13377.540951636864
326.7118154,13969.125063659583
327.1017607,14557.430421995974
327.4933418,15178.894406654275
327.88656960000003,15795.043063056555
328.2814555,16402.540230375274
328.6780106,17054.204216533755
329.0762465,17680.23187430163
329.47617460000004,18348.139838236675
329.8778065,19029.55380927172
330.281154,19755.787856235547
330.6862289,20497.379634804456
331.0930432,21318.714450557425
331.5016088,22214.052821801783
331.911938,23228.762712481548
332.32404310000004,24379.564437577043
332.7379364,25640.47951623605
333.1536305,27051.31025721121
333.571138,28639.20028631764
333.9904716,30380.681771438096
334.4116443,32264.61234993581
334.834669,34273.06641920424
335.2595588,36429.09523347637
335.686327,38757.40983486324
336.114987,41282.06490164688
336.5455522,44091.92962942272
336.9780363,47271.78372104048
337.41245310000005,50877.086211709335
337.8488164,54990.88558667863
338.28714019999995,59755.68593966458
338.7274388,65192.26858434858
339.1697264,71354.37267518732
339.6140175,78355.15073293279
340.06032660000005,86245.62755115451
340.5086685,94970.12988062792
340.959058,104631.07981586404
341.4115102,115247.35174835472
341.8660403,126975.90857245673
342.32266339999995,139765.1180329493
342.7813952,153754.41169682745
343.24225110000003,168969.99347973778
343.70524710000007,185502.8720836301
344.17039889999995,203349.0759520463
344.6377228,222548.05722470875
345.1072349,243143.5297281871
345.5789517,264945.15736791
346.0528897,288032.32207187806
346.5290657,312127.7284331868
347.0074967,337193.7103151528
347.48819960000003,363106.5926683218
347.9711917,389583.3762641085
348.45649060000005,416545.85475717776
348.9441137,443890.9199891482
349.434079,471371.173726098
349.9264043,498916.4050514083
350.4211078,526346.8833748046
350.9182079,553704.8824085081
351.4177232,580699.245227847
351.9196722,607176.9987685662
352.42407410000004,633032.2483167108
352.9309478,658225.6109890882
353.4403127,682251.8030846672
353.95218839999995,705201.1306438531
354.4665945,726779.6137844743
354.983551,746760.5193496415
355.503078,765033.4968716069
356.025196,781672.384868457
356.5499253,796272.2579046933
357.077287,808989.3182896678
357.6073018,820040.126484446
358.1399912,829077.1064043363
358.6753765,836569.9244991546
359.2134795,842314.8796063843
359.754322,846434.9723999536
360.2979263,848798.238075778
360.8443147,849713.3785895443
361.3935098,849232.1070170194
361.9455346,847244.4580306921
362.5004122,844084.4411566723
363.058166,839933.2432968109
363.61881960000005,835505.5602288852
364.1823969,831084.9848447214
364.7489221,827587.1564737845
365.3184196,825732.9807644213
365.8909141,826380.5124005867
366.4664305,830147.3123697984
367.0449943,837501.3490811009
367.6266307,848683.3270224616
368.2113658,863829.2941843172
368.7992255,882134.9956676555
369.3902363,903303.5331995122
369.9844249,925727.671366482
370.5818182,948608.7310768148
371.1824436,970188.342833286
371.7863286000001,989283.7893798894
372.3935012,1004968.197956164
373.0039896,1016283.1608897
373.6178223,1023598.9959598506
374.2350283,1026761.7446428464
374.8556368,1027271.8980233314
375.4796772,1026907.0398951838
376.1071796,1028239.4189646668
376.7381741,1033888.5898745185
377.3726913,1047154.8760690476
378.0107622,1071346.6904342135
378.652418,1109476.740321361
379.2976904,1164138.7290522691
379.9466115,1236989.5077267291
380.5992136,1328169.3832024334
381.2555296,1436739.8546695872
381.9155926,1560342.474196583
382.5794362,1695062.7175463368
383.2470943,1835806.4814879284
383.9186014,1976286.7219118665
384.5939922,2109946.0886774333
385.2733019,2230277.8819065457
385.9565661,2332753.0934577314
386.6438209,2412820.923444319
387.3351027,2469582.765225722
388.0304484,2503689.732643337
388.7298955,2519852.154854229
389.4334817,2522718.656083861
390.1412452,2517278.6011551763
390.853225,2513045.475454573
391.56946,2515523.947090069
392.2899901,2528687.918976755
393.0148555,2553781.813785639
393.7440968,2591038.676683992
394.4777551,2633615.7311945087
395.2158722,2678523.7606489
395.9584903,2721644.464029944
396.7056521,2754305.573032428
397.457401,2771958.974678394
398.2137806,2773677.596825181
398.9748353,2761883.582127843
399.7406101,2739991.1174727813
400.5111505,2714415.147825524
401.2865024,2690368.4616649733
402.0667126,2673119.387939637
402.8518283,2669450.7383178403
403.6418973,2681665.4247761983
404.436968,2711276.5789535097
405.2370896,2754991.77085221
406.0423117,2809125.1595953214
406.8526847,2868622.959356836
407.66825960000006,2927743.008316532
408.4890879,2980698.208633522
409.3152221,3023349.961201424
410.1467152,3051732.3098592483
410.9836208,3064712.7184854187
411.8259934,3062820.6673341817
412.673888,3047002.300753075
413.5273605,3020863.503061215
414.38646760000006,2988039.2464871206
415.2512664,2953575.0349368844
416.1218152,2920480.341678113
416.9981727,2894035.772951396
417.8803987,2878909.7097056243
418.7685535,2879205.40089558
419.6626985,2898770.799358293
420.5628957,2942319.7920477386
421.4692081,3014522.7763125687
422.3816994,3119658.1684228336
423.3004343,3263141.328735278
424.2254783,3448025.857440735
425.1568978,3671659.968035725
426.0947602,3927764.1626312137
427.0391337,4207086.375260682
427.9900874,4500152.605391872
428.9476917,4795113.386242411
429.9120175,5077315.013050927
430.8831369,5332913.3950925935
431.8611232,5546667.418925599
432.8460504,5712813.211170819
433.8379937,5827174.61242974
434.8370293,5887293.363733398
435.8432345,5894714.318267248
436.8566878,5850830.30530045
437.8774686,5761184.635896326
438.9056575,5632119.760442852
439.9413364,5471613.078869379
440.9845882,5288434.155624617
442.035497,5098105.751759856
443.0941482,4913262.893811383
444.1606283,4745668.533362427
445.23502520000005,4604465.868361956
446.317428,4497958.388601812
447.407927,4432736.770496955
448.5066141,4416040.7591991015
449.6135822,4452174.54237912
450.7289258,4534128.906487498
451.85274060000006,4653293.600173905
452.9851239,4802835.457428832
454.1261744,4972943.860918348
455.2759921,5155747.440204202
456.4346788,5340956.445653694
457.6023374,5516209.901655398
458.7790727,5666797.153823221
459.9649909,5788987.424818564
461.1601998,5884158.023056095
462.364809,5954240.099057502
463.5789295,6001533.979667805
464.8026741000001,6028245.619122068
466.0361575,6039432.734725239
467.2794956999999,6041590.7435737485
468.5328070000001,6041218.724660448
469.7962111000001,6041144.729499648
471.0698299,6041938.162251865
472.3537868,6041105.28051962
473.6482074,6041655.256255795
474.9532192,6041752.93800976
476.2689517,6041600.784479878
477.5955362,6041224.777954099
478.93310639999993,6041467.237401
480.2817979,6041282.10558704
481.6417484,6041044.8521071775
483.01309800000007,6041703.42094898
484.3959889,6041028.063592859
485.7905654,6041211.873791416
487.1969743,6041416.123481724
488.6153648,6041181.364837026
490.0458884,6041714.298372138
491.488699,6041223.945373199
492.943953,6041239.554663349
494.4118094,6041100.914556367
495.8924299,6041178.1811023485
497.3859785,6041614.855334298
498.8926222,6041495.247076194
500.4125306,6041600.001677146
501.9458762,6041526.193930556
503.4928341,6041768.930086143
505.0535827,6040991.913240955
506.628303,6041368.014150494
508.2171791999999,6041281.723487913
509.8203986,6041594.89322963
511.4381515,6041771.315597125
513.0706316000001,6041610.02722444
514.7180356,6041400.261972805
516.3805639,6041522.874201102
518.0584200000001,6041296.806357278
519.7518110000001,6041300.606140251
521.4609475999999,6041761.153317623
523.186044,6041616.609693281
524.927318,6041259.305760402
526.6849915,6041119.675479665
528.45929,6041795.912445122
530.2504428000001,6041338.156172695
532.0586836,6041591.272508263
533.8842498,6041709.800386002
535.7273833,6041832.86976415
537.5883299,6042106.108627631
539.46734,6041639.288066971
541.3646685,6041351.623801114
543.2805745000001,6038275.468947459
545.2153222000001,6027114.838730339
547.1691801,6003108.195684161
549.1424218999999,5964142.347009501
551.1353259,5907894.310149779
553.1481756000001,5836041.74808423
555.1812597,5748159.74365194
557.2348721,5645418.7304656925
559.3093121,5536399.743621596
561.4048845,5431637.188175336
563.5218996,5341331.391519108
565.6606737000001,5270645.252826542
567.8215287,5221610.8517291285
570.0047927,5194378.316173581
572.2107997,5186262.405433781
574.4398902,5193065.482363536
576.692411,5209670.351872802
578.9687155,5229047.818866929
581.2691637,5246234.564333756
583.5941226,5258404.743394942
585.943966,5267763.448953782
588.3190752,5275609.157006905
590.7198384999999,5287397.517818661
593.1466518,5306149.450488378
595.5999188999999,5337190.811574015
598.0800512,5381709.317523563
600.5874682,5438950.966797979
603.1225977000001,5506705.871165426
605.6858758999999,5581763.764300608
608.2777476,5661088.451571334
610.8986664,5740739.054749277
613.549095,5815526.929850993
616.2295054,5881068.630540975
618.940379,5931749.303286937
621.6822068,5972593.863087103
624.4554901,6004463.569841969
627.2607402000001,6023264.246054867
630.0984786,6035321.262780532
632.9692378999999,6040206.229384844
635.8735614,6040780.55872355
638.8120038,6041891.223323301
641.7851312999999,6041345.768519993
703.1812034,6041331.510317459
704.2110782000001,6034408.143058947
705.2443688999999,6001476.751476896
706.2810885,5926489.240218572
707.3212499,5796553.722529887
708.3648661000001,5602613.269924725
709.41195,5340322.041612587
710.4625143999999,5008270.949836734
711.5165721,4607884.872153019
712.5741357,4156723.900602465
713.6352181,3699867.615380514
714.6998317000001,3275251.7292207074
715.7679891,2913561.1965372404
716.8397027999999,2638610.145425174
717.9149852,2463083.3367133485
718.9938487000001,2392333.2506083185
720.0763055,2424636.5527081685
721.162368,2544390.2984507373
722.2520481,2720876.6189036896
723.3453581,2924573.507941234
724.4423098,3130931.83119498
725.5429153,3319571.053113372
726.6471863,3477423.115269578
727.7551346,3597095.198525487
728.866772,3677540.313457483
729.9821099,3721703.684980215
731.1011599,3734003.150441658
732.2239335,3720256.9032198233
733.3504419,3685912.0449722833
734.4806963999999,3635004.723145312
735.6147081,3571533.822726118
736.7524882,3498804.204572731
737.8940474,3419158.277133293
739.0393967,3340101.289983452
740.1885467999999,3271222.9146600426
741.3415084,3227182.6808242938
742.498292,3227320.2178914286
743.658908,3287084.185999661
744.8233667999999,3408783.056766678
745.9916785,3594192.794851364
747.1638532000001,3840141.101026168
748.3399009,4138010.865734168
749.5198315,4471896.625601148
750.7036546,4816154.960030578
751.89138,5135017.870853708
753.0830171,5406252.302718901
754.2785752999999,5627369.349020484
755.4780638,5798713.242807322
756.6814917,5920140.045404918
757.8888678999999,5994846.022156414
759.1002014999999,6031277.724336399
760.3155009,6041422.540877156
761.5347749,6041456.116721397
762.7580318,6041363.412736865
763.98528,6041286.075991209
765.2165276000001,6041626.161114726
766.4517825,6041364.2464734325
767.6910527000001,6041606.193474527
768.9343458999999,6041345.548343788
770.1816697,6041270.78928163
771.4330313999999,6041344.87657087
772.6884382999999,6041528.459953505
773.9478975,6041371.111006471
775.211416,6041768.571698408
776.4790005,6041688.286063748
777.7506578,6041419.630934094
779.0263942,6041108.582573384
780.3062162,6041236.293611111
781.5901297,6041015.763583353
782.8781409,6041687.667570801
784.1702554999999,6041695.519285145
785.4664793,6041842.932652517
786.7668176,6041017.010751676
788.0712758,6041178.356482808
789.3798591,6041251.283727039
790.6925722999999,6041311.861557088
792.0094204,6041393.884977872
793.3304079,6041290.985439526
794.6555392000001,6041472.729320486
795.9848187000001,6041567.287435471
797.3182504,6041163.7793804975
798.6558382999999,6041579.083554664
799.9975861,6041014.559745517
801.3434973,6041133.152911719
802.6935752999999,6041374.299341513
804.0478232999999,6041627.707916914
805.4062443,6041267.702490067
806.7688411,6041746.7636660775
808.1356164,6041317.968144717
809.5065726,6041197.777924172
810.881712,6037544.896481733
812.2610367000001,6028394.59190735
813.6445485,6014816.900926956
815.0322493,5998248.768784817
816.4241404,5982416.504881337
817.8202233,5967149.80877832
819.2204991,5951036.45936847
820.6249687999999,5934797.686519957
822.0336331,5927062.981777205
823.4464925999999,5929779.4752374
824.8635477000001,5942045.484309628
826.2847987,5958121.960509658
827.7102456,5973461.706609474
829.1398882,5989882.647950089
830.5737261,6005201.513707697
832.0117589,6021290.13786632
833.4539857000001,6033398.097096953
834.9004057999999,6039936.180928725
836.3510179,6041890.608300451
837.8058209,6041188.413779288
839.2648132999999,6041467.879739725
840.7279934000001,6041280.521402918
842.1953594,6041140.164031638
843.6669092,6041515.730522771
845.1426408,6041428.60068933
846.6225517000001,6041310.586533397
848.1066392999999,6041520.939658328
849.5949009999999,6041297.197510527
851.0873337999999,6041161.849240896
852.5839347000001,6041478.900197905
854.0847002999999,6041287.716090117
855.5896273,6041251.319928652
857.0987119999999,6041367.33564489
858.6119507000001,6041499.11833986
860.1293393999999,6041329.139505252
861.650874,6041459.402341343
863.1765502000001,6041490.657432567
864.7063635,6041257.659023435
866.2403094,6041336.348469251
867.778383,6041149.03002128
869.3205793999999,6041839.850766764
870.8668935000001,6041288.739347925
872.4173199999999,6041183.783607182
873.9718536,6041532.002847607
875.5304886,6041386.940272795
877.0932193,6041328.881488076
878.6600399,6041058.234669288
880.2309443,6041762.417351128
881.8059264000001,6041203.312318431
883.3849798,6041418.003360568
884.9680981,6041429.322478843
886.5552747000002,6041397.31540148
888.1465029,6041060.210288429
889.7417757000001,6041264.359633659
891.3410862,6041602.531741967
892.9444273,6041232.975990633
894.5517916000001,6041555.92160339
896.1631719000001,6041299.317566822
897.7785605,6041622.802593856
899.3979498,6041630.69443692
901.0213321,6041283.673450068
902.6486995,6041479.290664049
904.280044,6041292.442164497
905.9153575,6041270.44394296
907.5546319,6041050.794765208
909.1978586,6041153.945523327
910.8450295,6041256.961517931
912.4961358,6041027.299609391
914.1511691,6041785.9786400935
915.8101205,6041537.5595049225
917.4729813,6041242.926993521
919.1397426,6041077.478600496
920.8103953,6041337.505155128
922.4849303,6041133.543975286
924.1633386,6041576.44108139
925.8456109,6041554.54729999
927.5317378,6041214.256195001
929.22171,6041894.412019456
930.9155179,6041482.448954918
932.6131521,6041583.984047699
934.3146028,6041736.247791188
936.0198606,6041440.082229637
937.7289155,6041409.849225984
939.4417579,6041478.336114589
941.1583779,6041314.983901771
942.8787656,6041395.1008411925
944.6029109,6041840.892728483
946.3308041,6041876.075752604
948.0624349,6040986.72776355
949.7977933,6041480.451556994
951.5368692,6041445.860766117
953.2796523,6041193.790342455
955.0261327,6041281.1139344815
956.7762999,6041352.118376207
958.5301437,6041402.989568533
960.2876539,6041168.233986389
962.0488201,6041106.01089034
963.813632,6041381.707818882
965.5820793,6040956.1186445085
967.3541517,6041766.752679353
969.1298386,6041809.955394045
970.9091298,6040680.684005692
972.6920149,6042111.601190719
974.4784835,6040792.893440379
976.2685251,6041733.956126005
978.0621293,6041590.435390086
979.8592859,6042133.465484602
981.6599843,6042873.602297604
983.4642142,6041213.157967523
985.2719651,6040836.4467942575
987.0832269,6040873.194806333
988.897989,6040841.138829352
990.7162412,6041645.679377751
992.5379731,6041289.37266297
994.3631745,6041552.363521826
996.191835,6031455.916302208
998.0239445,6001213.5884593325
999.8594926,5942307.909043522
1001.698469,5846733.8667527065
1003.540864,5707560.284899212
1005.386668,5522361.6056684535
1007.235869,5285556.154156412
1009.088458,4995908.391635535
1010.944426,4669098.888067725
1012.803762,4326423.245774676
1014.666456,3984820.096130318
1016.532498,3657840.0516418833
1018.401878,3356337.299297148
1020.274588,3091008.3925567083
1022.150616,2866481.986331553
1024.029953,2687686.6733198487
1025.912591,2545569.553534901
1027.798518,2433091.422565682
1029.687726,2340000.9985964247
1031.580205,2259862.4810585207
1033.475945,2183585.1058121133
1035.3749380000002,2107749.907593725
1037.277175,2028780.953520708
1039.182645,1942645.3150049704
1041.09134,1850905.153987476
1043.003251,1752263.8371960246
1044.918368,1648720.01310298
1046.836683,1541831.0127302962
1048.758188,1434952.265840348
1050.682872,1328869.946519811
1052.610728,1226942.3993354845
1054.541747,1132380.159601252
1056.4759210000002,1044806.0206476344
1058.41324,966826.7752076852
1060.353697,897870.1805388415
1062.297282,837964.6889393901
1064.243989,785584.795399283
1066.193809,741325.6278458548
1068.146734,703964.5906869301
1070.102755,670864.5047357813
1072.061865,641802.6148313585
1074.024056,615294.2940189933
1075.989321,590406.671789814
1077.957651,566059.7307356157
1079.92904,542356.2179932783
1081.9034800000002,518507.8847868306
1083.880963,493817.5933955719
1085.861482,469875.9860790502
1087.8450300000002,446496.0053174853
1089.8316,422639.9163826367
1091.821185,400769.2545503244
1093.8137789999998,379901.84814366815
1095.809373,360343.3140932901
1097.807962,341783.01874921826
1099.809539,325250.5982988232
1101.814098,310652.18691938143
1103.821631,297396.6705832861
1105.832134,285578.9999922994
1107.845599,275461.12799395283
1109.86202,266508.4243037332
1111.881392,258712.15499741075
1113.903708,251345.80207787163
1115.928963,245037.40914595497
1117.95715,238888.33559601448
1119.988266,232735.31006177596
1122.022303,226328.7901872597
1124.059256,219348.72089459345
1126.09912,212541.5018875947
1128.14189,205019.6022342709
1130.187561,197205.0203854668
1132.236128,188992.34282592204
1134.287585,180442.53598648915
1136.341929,172198.97541633062
1138.3991529999998,163901.43355782225
1140.459254,155589.14701926356
1142.522228,147631.50257439114
1144.588069,140017.6072228972
1146.6567730000002,132604.9878781259
1148.728337,125664.53389932936
1150.802756,118926.77871582856
1152.880025,112302.5863227754
1154.960142,105860.81381300966
1157.043103,99446.37039489944
