wave,flux
306.2504509,15.22717923154057
306.5604242,33.40235455834936
306.871524,53.42389771580803
307.18375710000004,78.4908481938514
307.4971302,109.10989432621416
307.8116501,145.4374568394784
308.1273236,174.43227390648312
308.4441577,205.9050964862083
308.7621594,238.5413549062553
309.0813356,271.92722123197683
309.4016935,315.30818024413054
309.7232403,361.437725220402
310.04598300000004,410.77729208262514
310.369929,462.6315587941749
310.6950856,526.5752490761815
311.0214601,585.4971526880388
311.34906010000003,657.9547731607881
311.6778931,723.2968188692745
312.0079665,799.5487401395062
312.33928810000003,872.7951028687312
312.6718655,958.0738678644536
313.00570639999995,1054.5704751123424
313.3408189,1151.9834620931244
313.6772106,1251.5773300654937
314.0148896,1357.094993151983
314.3538639,1473.3835882254405
314.6941415,1585.8634726915586
315.0357308,1709.7226527187754
315.37863980000003,1836.796706159084
315.7228769,1978.0070269898529
316.0684504,2118.3118659727998
316.4153688,2260.67726395277
316.76364069999994,2409.717359186453
317.1132746,2561.2719347286693
317.4642791,2720.121761506533
317.8166631,2890.001357674075
318.1704352,3058.983410457799
318.5256045,3235.991320880264
318.8821799,3419.5070467911214
319.2401704,3602.654355531072
319.5995851,3788.133478369976
319.96043330000003,3982.154512154013
320.3227243,4171.177056424891
320.6864673,4364.306237038823
321.0516719,4564.818772187444
321.4183476,4760.052509403508
321.786504,4964.910055903642
322.1561508,5158.161784436345
322.5272977,5387.097396577871
322.8999548,5632.156484973909
323.2741319,5948.153557224442
323.649839,6339.976072743195
324.0270864,6832.150923587885
324.40588419999995,7400.500608447553
324.7862428,8075.291652465064
325.16817260000005,8849.108622983946
325.5516841,9715.868634128246
325.9367879,10636.731712299552
326.32349480000005,11534.73519781035
326.7118154,12391.765395595903
327.1017607,13174.615596362832
327.4933418,13923.295842853337
327.88656960000003,14599.030314615402
328.2814555,15228.837301200883
328.6780106,15784.073495658184
329.0762465,16307.262132439331
329.47617460000004,16845.606913229087
329.8778065,17376.810884175018
330.281154,17953.057872169204
330.6862289,18524.11902110613
331.0930432,19137.51307017052
331.5016088,19800.01000898481
331.911938,20564.09578003232
332.32404310000004,21404.60723409181
332.7379364,22350.46831367658
333.1536305,23426.714365186133
333.571138,24604.785193485382
333.9904716,25958.5309248314
334.4116443,27424.653085573314
334.834669,29019.154148844304
335.2595588,30702.84231080417
335.686327,32490.139370370995
336.114987,34375.06772650718
336.5455522,36398.810165698975
336.9780363,38606.742563788655
337.41245310000005,41011.15133210076
337.8488164,43680.66462794352
338.28714019999995,46657.537607032864
338.7274388,49970.27294923976
339.1697264,53704.27721416458
339.6140175,57869.42953566435
340.06032660000005,62532.0289847989
340.5086685,67729.47100416395
340.959058,73475.13250973904
341.4115102,79816.51286151857
341.8660403,86780.88214217138
342.32266339999995,94444.0972995526
342.7813952,102825.86042874012
343.24225110000003,112016.3124994742
343.70524710000007,121940.13706392975
344.17039889999995,132708.98017251646
344.6377228,144232.59201591258
345.1072349,156602.30781180382
345.5789517,169643.09599041464
346.0528897,183453.1951812001
346.5290657,197829.37346220628
347.0074967,212705.4478866004
347.48819960000003,228093.6507042216
347.9711917,243832.5250748317
348.45649060000005,259907.48898924649
348.9441137,276118.7962570641
349.434079,292456.82357188995
349.9264043,308846.62290024443
350.4211078,325393.47559065605
350.9182079,341901.5338564157
351.4177232,358461.5918281469
351.9196722,375057.33589547325
352.42407410000004,391610.2783687142
352.9309478,408197.6437127621
353.4403127,424779.1005149641
353.95218839999995,441312.99933960993
354.4665945,457797.7606739122
354.983551,474170.7441292615
355.503078,490443.4695610092
356.025196,506526.63309762033
356.5499253,522380.14665058407
357.077287,538058.4097171039
357.6073018,553468.508421119
358.1399912,568636.4604332516
358.6753765,583511.031409846
359.2134795,597908.2258783671
359.754322,612031.4282068091
360.2979263,625695.4200087242
360.8443147,639068.4417873548
361.3935098,652036.5906106979
361.9455346,665108.4264470682
362.5004122,678508.617104001
363.058166,693586.3778830903
363.61881960000005,711022.3511559772
364.1823969,733142.0880183141
364.7489221,761702.846682056
365.3184196,799095.9841281977
365.8909141,847845.6861143834
366.4664305,910014.778466342
367.0449943,987387.9967341736
367.6266307,1080581.911322966
368.2113658,1189232.023589913
368.7992255,1311111.549691202
369.3902363,1442589.719477743
369.9844249,1577894.7632333068
370.5818182,1711036.7073434177
371.1824436,1834400.082362928
371.7863286000001,1940989.020027924
372.3935012,2024371.7844753652
373.0039896,2079029.0039409488
373.6178223,2101964.673905204
374.2350283,2092894.4306711825
374.8556368,2053400.497680336
375.4796772,1988171.842543553
376.1071796,1903699.5663419808
376.7381741,1807312.7732237645
377.3726913,1707908.5734957447
378.0107622,1613573.5256934462
378.652418,1531896.5639958398
379.2976904,1469536.0453675191
379.9466115,1430506.5129476632
380.5992136,1418181.9431379694
381.2555296,1432056.024897849
381.9155926,1471387.9301632077
382.5794362,1532920.4735161206
383.2470943,1611286.6335050715
383.9186014,1700935.2772894134
384.5939922,1794620.876233549
385.2733019,1885420.5554267063
385.9565661,1966558.2278691088
386.6438209,2032592.684160659
387.3351027,2078915.261833608
388.0304484,2102992.6915237447
388.7298955,2105821.065615211
389.4334817,2089353.653517924
390.1412452,2057420.793926564
390.853225,2015574.6202699805
391.56946,1971892.644152408
392.2899901,1931457.199509628
393.0148555,1898850.2779120256
393.7440968,1876756.9472423787
394.4777551,1866199.564204293
395.2158722,1865524.5695058145
395.9584903,1874571.242548474
396.7056521,1889045.0334567677
397.457401,1903287.1218332965
398.2137806,1915889.756400931
398.9748353,1926762.2990626087
399.7406101,1936492.8930286043
400.5111505,1947460.544693992
401.2865024,1962300.265616342
402.0667126,1983337.4266341808
402.8518283,2012982.7047574923
403.6418973,2054352.491768133
404.436968,2107038.4069175404
405.2370896,2168599.11944031
406.0423117,2235756.5390452608
406.8526847,2304340.1565959016
407.66825960000006,2369568.2423355337
408.4890879,2426058.3506876696
409.3152221,2469907.368315984
410.1467152,2498525.053621328
410.9836208,2509686.566481204
411.8259934,2504161.3019215977
412.673888,2482785.6769961
413.5273605,2448948.2075011814
414.38646760000006,2406530.047112958
415.2512664,2359914.2883307417
416.1218152,2313517.922092956
416.9981727,2272881.005123943
417.8803987,2241274.9326555333
418.7685535,2223460.8742723456
419.6626985,2222569.14361294
420.5628957,2241343.8213370363
421.4692081,2283392.9406448705
422.3816994,2350012.8223938667
423.3004343,2444628.871398826
424.2254783,2568894.282567325
425.1568978,2722453.21580364
426.0947602,2905965.559834589
427.0391337,3117263.363343213
427.9900874,3351150.784178491
428.9476917,3600405.616476971
429.9120175,3854649.2673089895
430.8831369,4101200.3556010392
431.8611232,4326461.220196338
432.8460504,4516036.309224007
433.8379937,4658449.239539587
434.8370293,4745001.209252269
435.8432345,4770937.316233401
436.8566878,4737642.340836016
437.8774686,4651714.26085909
438.9056575,4524940.437947711
439.9413364,4370304.454456919
440.9845882,4204098.640117554
442.035497,4039283.573050541
443.0941482,3888440.565033482
444.1606283,3759802.6418662113
445.23502520000005,3658441.03252712
446.317428,3586275.0989431576
447.407927,3541669.6462477683
448.5066141,3523327.8997240933
449.6135822,3528861.935770489
450.7289258,3557307.467074788
451.85274060000006,3609005.5616757264
452.9851239,3687095.1643774994
454.1261744,3795510.492341488
455.2759921,3939328.77696815
456.4346788,4114420.0697791474
457.6023374,4316694.155381337
458.7790727,4540788.616791135
459.9649909,4779790.187341712
461.1601998,5023659.318083517
462.364809,5259776.976509444
463.5789295,5471717.963910598
464.8026741000001,5647097.643933832
466.0361575,5785867.5394599335
467.2794956999999,5890776.070194721
468.5328070000001,5964832.164173703
469.7962111000001,6010669.528871613
471.0698299,6033940.757877219
472.3537868,6041059.423877658
473.6482074,6041244.373093178
474.9532192,6041752.4784945175
476.2689517,6041604.739339733
477.5955362,6041435.877077487
478.93310639999993,6041533.703456268
480.2817979,6041660.951940808
481.6417484,6041441.309998169
483.01309800000007,6041887.513218755
484.3959889,6041100.372888689
485.7905654,6041014.9191811625
487.1969743,6041612.436460794
488.6153648,6041442.2049475
490.0458884,6041273.734301456
491.488699,6041606.073801364
492.943953,6041416.581876579
494.4118094,6041159.164222523
495.8924299,6041502.187931736
497.3859785,6041373.958915194
498.8926222,6041539.774482423
500.4125306,6041177.6690124925
501.9458762,6041978.425005301
503.4928341,6041487.2880970165
505.0535827,6041353.506218195
506.628303,6041367.386521097
508.2171791999999,6041628.772242293
509.8203986,6041319.339088706
511.4381515,6041622.3126569325
513.0706316000001,6041849.935134232
514.7180356,6041618.5002573
516.3805639,6041416.407049386
518.0584200000001,6041157.731618882
519.7518110000001,6041543.379728957
521.4609475999999,6041613.026182093
523.186044,6041387.8676379975
524.927318,6041439.876676734
526.6849915,6041234.101878268
528.45929,6041506.753761344
530.2504428000001,6041084.642879256
532.0586836,6041269.244455065
533.8842498,6041376.228251999
535.7273833,6041564.437803592
537.5883299,6041113.71560206
539.46734,6041461.62171533
541.3646685,6041401.650587748
543.2805745000001,6041263.685448705
545.2153222000001,6041489.7127461415
547.1691801,6041470.256722378
549.1424218999999,6041260.555130593
551.1353259,6041463.007561573
553.1481756000001,6040912.755176181
555.1812597,6041494.792950627
557.2348721,6041524.167914751
559.3093121,6041113.9843463525
561.4048845,6041536.567847027
563.5218996,6041218.303253124
565.6606737000001,6041599.0763833765
567.8215287,6041521.01087644
570.0047927,6041322.351295759
572.2107997,6041651.471998038
574.4398902,6041690.603430763
576.692411,6041037.964985582
578.9687155,6041619.988675724
581.2691637,6041380.963106383
583.5941226,6041075.78092744
585.943966,6041346.85346314
588.3190752,6040887.341627928
590.7198384999999,6041696.517474669
593.1466518,6041262.435574237
595.5999188999999,6041371.29763554
598.0800512,6041190.963626277
600.5874682,6041348.539720485
603.1225977000001,6041370.946305523
605.6858758999999,6041232.011033958
608.2777476,6041897.980425552
610.8986664,6041163.359794432
613.549095,6041355.687754455
616.2295054,6041462.855698908
618.940379,6041448.668125793
621.6822068,6042054.226637802
624.4554901,6041073.126663961
627.2607402000001,6042326.3913857015
630.0984786,6043692.00020458
632.9692378999999,6041439.119181514
635.8735614,6040961.335828042
638.8120038,6042164.087362773
641.7851312999999,6042820.833285224
644.7935217999999,6043307.866963742
647.8377654,6039854.034585362
650.9184646000001,6041536.059908577
654.0362346,6040841.647624693
657.1917038,6039437.063693534
660.3855139,6043252.720935698
663.6183202999999,6041492.858146463
666.8907926,6041300.268403103
703.1812034,6041331.510317459
704.2110782000001,6034408.143058947
705.2443688999999,6001476.751476896
706.2810885,5926489.240218572
707.3212499,5796553.722529887
708.3648661000001,5602613.269924725
709.41195,5340322.041612587
710.4625143999999,5008270.949836734
711.5165721,4607884.872153019
712.5741357,4156723.900602465
713.6352181,3699867.615380514
714.6998317000001,3275251.7292207074
715.7679891,2913561.1965372404
716.8397027999999,2638610.145425174
717.9149852,2463083.3367133485
718.9938487000001,2392333.2506083185
720.0763055,2424636.5527081685
721.162368,2544390.2984507373
722.2520481,2720876.6189036896
723.3453581,2924573.507941234
724.4423098,3130931.83119498
725.5429153,3319571.053113372
726.6471863,3477423.115269578
727.7551346,3597095.198525487
728.866772,3677540.313457483
729.9821099,3721703.684980215
731.1011599,3734003.150441658
732.2239335,3720256.9032198233
733.3504419,3685912.0449722833
734.4806963999999,3635004.723145312
735.6147081,3571533.822726118
736.7524882,3498804.204572731
737.8940474,3419158.277133293
739.0393967,3340101.289983452
740.1885467999999,3271222.9146600426
741.3415084,3227182.6808242938
742.498292,3227320.2178914286
743.658908,3287084.185999661
744.8233667999999,3408783.056766678
745.9916785,3594192.794851364
747.1638532000001,3840141.101026168
748.3399009,4138010.865734168
749.5198315,4471896.625601148
750.7036546,4816154.960030578
751.89138,5135017.870853708
753.0830171,5406252.302718901
754.2785752999999,5627369.349020484
755.4780638,5798713.242807322
756.6814917,5920140.045404918
757.8888678999999,5994846.022156414
759.1002014999999,6031277.724336399
760.3155009,6041422.540877156
761.5347749,6041456.116721397
762.7580318,6041363.412736865
763.98528,6041286.075991209
765.2165276000001,6041626.161114726
766.4517825,6041364.2464734325
767.6910527000001,6041606.193474527
768.9343458999999,6041345.548343788
770.1816697,6041270.78928163
771.4330313999999,6041344.87657087
772.6884382999999,6041528.459953505
773.9478975,6041371.111006471
775.211416,6041768.571698408
776.4790005,6041688.286063748
777.7506578,6041419.630934094
779.0263942,6041108.582573384
780.3062162,6041236.293611111
781.5901297,6041015.763583353
782.8781409,6041687.667570801
784.1702554999999,6041695.519285145
785.4664793,6041842.932652517
786.7668176,6041017.010751676
788.0712758,6041178.356482808
789.3798591,6041251.283727039
790.6925722999999,6041311.861557088
792.0094204,6041393.884977872
793.3304079,6041290.985439526
794.6555392000001,6041472.729320486
795.9848187000001,6041567.287435471
797.3182504,6041163.7793804975
798.6558382999999,6041579.083554664
799.9975861,6041014.559745517
801.3434973,6041133.152911719
802.6935752999999,6041374.299341513
804.0478232999999,6041627.707916914
805.4062443,6041267.702490067
806.7688411,6041746.7636660775
808.1356164,6041317.968144717
809.5065726,6041197.777924172
810.881712,6037544.896481733
812.2610367000001,6028394.59190735
813.6445485,6014816.900926956
815.0322493,5998248.768784817
816.4241404,5982416.504881337
817.8202233,5967149.80877832
819.2204991,5951036.45936847
820.6249687999999,5934797.686519957
822.0336331,5927062.981777205
823.4464925999999,5929779.4752374
824.8635477000001,5942045.484309628
826.2847987,5958121.960509658
827.7102456,5973461.706609474
829.1398882,5989882.647950089
830.5737261,6005201.513707697
832.0117589,6021290.13786632
833.4539857000001,6033398.097096953
834.9004057999999,6039936.180928725
836.3510179,6041890.608300451
837.8058209,6041188.413779288
839.2648132999999,6041467.879739725
840.7279934000001,6041280.521402918
842.1953594,6041140.164031638
843.6669092,6041515.730522771
845.1426408,6041428.60068933
846.6225517000001,6041310.586533397
848.1066392999999,6041520.939658328
849.5949009999999,6041297.197510527
851.0873337999999,6041161.849240896
852.5839347000001,6041478.900197905
854.0847002999999,6041287.716090117
855.5896273,6041251.319928652
857.0987119999999,6041367.33564489
858.6119507000001,6041499.11833986
860.1293393999999,6041329.139505252
861.650874,6041459.402341343
863.1765502000001,6041490.657432567
864.7063635,6041257.659023435
866.2403094,6041336.348469251
867.778383,6041149.03002128
869.3205793999999,6041839.850766764
870.8668935000001,6041288.739347925
872.4173199999999,6041183.783607182
873.9718536,6041532.002847607
875.5304886,6041386.940272795
877.0932193,6041328.881488076
878.6600399,6041058.234669288
880.2309443,6041762.417351128
881.8059264000001,6041203.312318431
883.3849798,6041418.003360568
884.9680981,6041429.322478843
886.5552747000002,6041397.31540148
888.1465029,6041060.210288429
889.7417757000001,6041264.359633659
891.3410862,6041602.531741967
892.9444273,6041232.975990633
894.5517916000001,6041555.92160339
896.1631719000001,6041299.317566822
897.7785605,6041622.802593856
899.3979498,6041630.69443692
901.0213321,6041283.673450068
902.6486995,6041479.290664049
904.280044,6041292.442164497
905.9153575,6041270.44394296
907.5546319,6041050.794765208
909.1978586,6041153.945523327
910.8450295,6041256.961517931
912.4961358,6041027.299609391
914.1511691,6041785.9786400935
915.8101205,6041537.5595049225
917.4729813,6041242.926993521
919.1397426,6041077.478600496
920.8103953,6041337.505155128
922.4849303,6041133.543975286
924.1633386,6041576.44108139
925.8456109,6041554.54729999
927.5317378,6041214.256195001
929.22171,6041894.412019456
930.9155179,6041482.448954918
932.6131521,6041583.984047699
934.3146028,6041736.247791188
936.0198606,6041440.082229637
937.7289155,6041409.849225984
939.4417579,6041478.336114589
941.1583779,6041314.983901771
942.8787656,6041395.1008411925
944.6029109,6041840.892728483
946.3308041,6041876.075752604
948.0624349,6040986.72776355
949.7977933,6041480.451556994
951.5368692,6041445.860766117
953.2796523,6041193.790342455
955.0261327,6041281.1139344815
956.7762999,6041352.118376207
958.5301437,6041402.989568533
960.2876539,6041168.233986389
962.0488201,6041106.01089034
963.813632,6041381.707818882
965.5820793,6040956.1186445085
967.3541517,6041766.752679353
969.1298386,6041809.955394045
970.9091298,6040680.684005692
972.6920149,6042111.601190719
974.4784835,6040792.893440379
976.2685251,6041733.956126005
978.0621293,6041590.435390086
979.8592859,6042133.465484602
981.6599843,6042873.602297604
983.4642142,6041213.157967523
985.2719651,6040836.4467942575
987.0832269,6040873.194806333
988.897989,6040841.138829352
990.7162412,6041645.679377751
992.5379731,6041289.37266297
994.3631745,6041552.363521826
996.191835,6031455.916302208
998.0239445,6001213.5884593325
999.8594926,5942307.909043522
1001.698469,5846733.8667527065
1003.540864,5707560.284899212
1005.386668,5522361.6056684535
1007.235869,5285556.154156412
1009.088458,4995908.391635535
1010.944426,4669098.888067725
1012.803762,4326423.245774676
1014.666456,3984820.096130318
1016.532498,3657840.0516418833
1018.401878,3356337.299297148
1020.274588,3091008.3925567083
1022.150616,2866481.986331553
1024.029953,2687686.6733198487
1025.912591,2545569.553534901
1027.798518,2433091.422565682
1029.687726,2340000.9985964247
1031.580205,2259862.4810585207
1033.475945,2183585.1058121133
1035.3749380000002,2107749.907593725
1037.277175,2028780.953520708
1039.182645,1942645.3150049704
1041.09134,1850905.153987476
1043.003251,1752263.8371960246
1044.918368,1648720.01310298
1046.836683,1541831.0127302962
1048.758188,1434952.265840348
1050.682872,1328869.946519811
1052.610728,1226942.3993354845
1054.541747,1132380.159601252
1056.4759210000002,1044806.0206476344
1058.41324,966826.7752076852
1060.353697,897870.1805388415
1062.297282,837964.6889393901
1064.243989,785584.795399283
1066.193809,741325.6278458548
1068.146734,703964.5906869301
1070.102755,670864.5047357813
1072.061865,641802.6148313585
1074.024056,615294.2940189933
1075.989321,590406.671789814
1077.957651,566059.7307356157
1079.92904,542356.2179932783
1081.9034800000002,518507.8847868306
1083.880963,493817.5933955719
1085.861482,469875.9860790502
1087.8450300000002,446496.0053174853
1089.8316,422639.9163826367
1091.821185,400769.2545503244
1093.8137789999998,379901.84814366815
1095.809373,360343.3140932901
1097.807962,341783.01874921826
1099.809539,325250.5982988232
1101.814098,310652.18691938143
1103.821631,297396.6705832861
1105.832134,285578.9999922994
1107.845599,275461.12799395283
1109.86202,266508.4243037332
1111.881392,258712.15499741075
1113.903708,251345.80207787163
1115.928963,245037.40914595497
1117.95715,238888.33559601448
1119.988266,232735.31006177596
1122.022303,226328.7901872597
1124.059256,219348.72089459345
1126.09912,212541.5018875947
1128.14189,205019.6022342709
1130.187561,197205.0203854668
1132.236128,188992.34282592204
1134.287585,180442.53598648915
1136.341929,172198.97541633062
1138.3991529999998,163901.43355782225
