wave,flux
306.2504509,7.314731848536001
306.5604242,17.243124775269067
306.871524,20.85475206569605
307.18375710000004,26.357767817583262
307.4971302,43.035052541765936
307.8116501,53.0912767996866
308.1273236,64.16202656232053
308.4441577,75.61183124478613
308.7621594,90.34390095290314
309.0813356,103.64832377765435
309.4016935,117.4528370746936
309.7232403,140.29048896129737
310.04598300000004,156.2269465047559
310.369929,177.21574393327066
310.6950856,195.768138108437
311.0214601,222.07473256102284
311.34906010000003,247.0823171645672
311.6778931,275.8774188791472
312.0079665,299.42843039533386
312.33928810000003,326.7839040805611
312.6718655,362.3751652660297
313.00570639999995,398.686665400111
313.3408189,433.6764527402131
313.6772106,469.8199079265831
314.0148896,509.6861377586703
314.3538639,554.3930728496531
314.6941415,597.3268162443999
315.0357308,646.8480791379227
315.37863980000003,691.2199597457097
315.7228769,739.8879427110286
316.0684504,790.772566814364
316.4153688,847.8798635519265
316.76364069999994,905.1011085862972
317.1132746,964.4879758512884
317.4642791,1028.11529509227
317.8166631,1092.4718019262823
318.1704352,1160.680323584997
318.5256045,1236.8360247125026
318.8821799,1301.0062210368906
319.2401704,1369.1141920363775
319.5995851,1443.8078692464326
319.96043330000003,1517.84898880967
320.3227243,1588.6630334411816
320.6864673,1665.0181766451926
321.0516719,1743.218722366482
321.4183476,1819.0402886714292
321.786504,1888.5798795914557
322.1561508,1973.844804007038
322.5272977,2053.1761769054588
322.8999548,2135.0282441020577
323.2741319,2235.2907322580168
323.649839,2344.9450900628367
324.0270864,2462.3438776220464
324.40588419999995,2592.8213333581284
324.7862428,2730.486079241893
325.16817260000005,2874.546542798945
325.5516841,3041.2504213052034
325.9367879,3206.9727274780016
326.32349480000005,3366.5894894108587
326.7118154,3527.509152975682
327.1017607,3687.6707382540985
327.4933418,3845.117488340572
327.88656960000003,4009.46020899184
328.2814555,4165.848339542658
328.6780106,4321.977953923244
329.0762465,4478.761967284495
329.47617460000004,4650.278387476378
329.8778065,4820.327081437014
330.281154,4993.27388069676
330.6862289,5176.21374086886
331.0930432,5380.185360752967
331.5016088,5618.305795330954
331.911938,5911.202311363245
332.32404310000004,6249.598299240952
332.7379364,6648.009715708855
333.1536305,7096.768949273514
333.571138,7614.614470608477
333.9904716,8200.500799275775
334.4116443,8833.441279749997
334.834669,9479.41293431278
335.2595588,10153.240473746297
335.686327,10840.79655995162
336.114987,11554.115538145725
336.5455522,12306.8966938779
336.9780363,13117.075804111731
337.41245310000005,14016.351869005428
337.8488164,15025.71996231432
338.28714019999995,16167.365682677651
338.7274388,17472.837097319923
339.1697264,18949.43334901304
339.6140175,20625.027536202524
340.06032660000005,22492.4818518016
340.5086685,24542.07366498973
340.959058,26774.46220792755
341.4115102,29212.002532238697
341.8660403,31846.552250567176
342.32266339999995,34687.91626850169
342.7813952,37779.24642377069
343.24225110000003,41131.508550191946
343.70524710000007,44731.06233352223
344.17039889999995,48616.72509939256
344.6377228,52795.24736836564
345.1072349,57292.00652031416
345.5789517,62072.75182985777
346.0528897,67111.84672517197
346.5290657,72395.7143465753
347.0074967,77906.97051784207
347.48819960000003,83583.42888835084
347.9711917,89456.88992402444
348.45649060000005,95404.87280720612
348.9441137,101457.81473693057
349.434079,107535.78580787648
349.9264043,113696.11248953908
350.4211078,119893.20283308363
350.9182079,126121.02404515073
351.4177232,132397.1444318869
351.9196722,138711.5702615772
352.42407410000004,145086.12372852748
352.9309478,151538.2128808088
353.4403127,158048.8681406969
353.95218839999995,164583.85827462687
354.4665945,171187.5800872049
354.983551,177824.50869710435
355.503078,184467.3953285107
356.025196,191071.757402092
356.5499253,197665.38827769004
357.077287,204194.37748976075
357.6073018,210558.49136449685
358.1399912,216819.55461612085
358.6753765,222873.47016849305
359.2134795,228659.5505172599
359.754322,234140.7691649893
360.2979263,239198.12595795872
360.8443147,243792.0141422089
361.3935098,247921.8390173645
361.9455346,251409.64109847532
362.5004122,254366.3085892552
363.058166,256766.61183859623
363.61881960000005,258839.5814455125
364.1823969,260751.2899851348
364.7489221,262844.24246000405
365.3184196,265343.47666094365
365.8909141,268701.7809367457
366.4664305,273068.8399542844
367.0449943,278824.7427190547
367.6266307,286063.5334962046
368.2113658,294744.5964136829
368.7992255,304778.3540655595
369.3902363,315570.7678309684
369.9844249,326899.2018744385
370.5818182,338084.14357096073
371.1824436,348617.2073863693
371.7863286000001,357791.18057995976
372.3935012,365260.0838825655
373.0039896,370757.8648282733
373.6178223,374303.2205786171
374.2350283,376001.599848795
374.8556368,376557.3143883707
375.4796772,376938.3611497578
376.1071796,378118.78464539023
376.7381741,381643.20150887966
377.3726913,389013.3064442709
378.0107622,401773.80090174015
378.652418,421482.9495156794
379.2976904,449396.9465646249
379.9466115,486407.3828664346
380.5992136,532845.922286335
381.2555296,587984.1011916839
381.9155926,651265.9365056282
382.5794362,720588.3040537715
383.2470943,793293.7290173363
383.9186014,866441.4863998942
384.5939922,936763.9389183358
385.2733019,1000842.1904564038
385.9565661,1055952.7984006028
386.6438209,1099989.0095168
387.3351027,1131855.8144821736
388.0304484,1151902.3933237123
388.7298955,1162347.4139183788
389.4334817,1165338.227107498
390.1412452,1163703.246553316
390.853225,1163628.3377492686
391.56946,1168978.2003275878
392.2899901,1181518.0941401846
393.0148555,1202315.217583042
393.7440968,1232017.1937526185
394.4777551,1266862.953459819
395.2158722,1305753.3393566108
395.9584903,1346917.5730209418
396.7056521,1382182.8109835424
397.457401,1408937.7266776585
398.2137806,1426782.2644350366
398.9748353,1436574.8886630572
399.7406101,1439971.4735941486
400.5111505,1440060.9832153472
401.2865024,1439546.6854093643
402.0667126,1440752.5528385232
402.8518283,1448195.8507675484
403.6418973,1463542.0812698668
404.436968,1486450.4306471625
405.2370896,1515467.1417469324
406.0423117,1548482.4607970116
406.8526847,1582458.5275732682
407.66825960000006,1614348.8279438054
408.4890879,1641335.9977137535
409.3152221,1661520.2495699308
410.1467152,1673697.5079881654
410.9836208,1676920.8744967694
411.8259934,1672254.3908719304
412.673888,1661025.1480149073
413.5273605,1644991.2413776591
414.38646760000006,1626477.9420857166
415.2512664,1608703.0261314765
416.1218152,1593105.075826664
416.9981727,1582732.1098447775
417.8803987,1579716.5613959818
418.7685535,1586195.4928906308
419.6626985,1604487.250985276
420.5628957,1636753.7028288608
421.4692081,1685689.983850158
422.3816994,1753167.178988125
423.3004343,1842529.4930297649
424.2254783,1955609.677030596
425.1568978,2094135.4145815813
426.0947602,2258876.637536212
427.0391337,2448205.538323615
427.9900874,2658766.2584433653
428.9476917,2884617.6446105014
429.9120175,3116082.6964409635
430.8831369,3341396.533321414
431.8611232,3547528.845831726
432.8460504,3721212.0498974775
433.8379937,3851080.1510549183
434.8370293,3927704.950619582
435.8432345,3946998.3837078186
436.8566878,3909975.2513314863
437.8774686,3822080.634264304
438.9056575,3693856.18936555
439.9413364,3539283.362323766
440.9845882,3372195.255262365
442.035497,3206461.908858282
443.0941482,3054406.4217879763
444.1606283,2924018.6582675227
445.23502520000005,2820980.824761448
446.317428,2748257.3376439004
447.407927,2705624.835731149
448.5066141,2692087.15667822
449.6135822,2706724.6883895355
450.7289258,2749383.951232067
451.85274060000006,2821622.931510983
452.9851239,2927028.5509575075
454.1261744,3072102.174236665
455.2759921,3262398.2920532417
456.4346788,3493426.2168641863
457.6023374,3759712.066297188
458.7790727,4054821.661867097
459.9649909,4367815.7707790965
461.1601998,4688078.490108818
462.364809,4998532.925264349
463.5789295,5279827.558953652
464.8026741000001,5511271.942899565
466.0361575,5696672.834608133
467.2794956999999,5836862.408213108
468.5328070000001,5936172.32586792
469.7962111000001,5998052.914025775
471.0698299,6030505.014498666
472.3537868,6041854.2696055975
473.6482074,6041333.961162102
474.9532192,6041122.0098241335
476.2689517,6041799.900993552
477.5955362,6041850.702544033
478.93310639999993,6041591.66223776
480.2817979,6041563.542387391
481.6417484,6041328.95226329
483.01309800000007,6041128.190731619
484.3959889,6041856.7445376525
485.7905654,6041293.082352234
487.1969743,6041715.743096781
488.6153648,6041319.045795114
490.0458884,6041543.21170006
491.488699,6041177.828409048
492.943953,6041639.690906012
494.4118094,6041386.077583588
495.8924299,6041140.667268685
497.3859785,6041670.779019767
498.8926222,6041620.891564841
500.4125306,6041496.48515567
501.9458762,6041713.580789608
503.4928341,6041562.225936841
505.0535827,6041674.879129726
506.628303,6041238.036659585
508.2171791999999,6041689.479029182
509.8203986,6041496.280907773
511.4381515,6041027.895155016
513.0706316000001,6041430.975792692
514.7180356,6041444.458515254
516.3805639,6041291.866469194
518.0584200000001,6041726.645018947
519.7518110000001,6041462.991125586
521.4609475999999,6041709.619991216
523.186044,6041384.528709098
524.927318,6041483.167517142
526.6849915,6041242.144025752
528.45929,6041554.803631897
530.2504428000001,6041534.697108958
532.0586836,6041363.345501892
533.8842498,6041801.00946011
535.7273833,6041718.921142519
537.5883299,6041452.103472427
539.46734,6041113.185808373
541.3646685,6041429.665636159
543.2805745000001,6037992.494462045
545.2153222000001,6028339.258572518
547.1691801,6012120.162964721
549.1424218999999,5989448.051799243
551.1353259,5962333.895649369
553.1481756000001,5934985.447748868
555.1812597,5906697.369041017
557.2348721,5878759.9806145
559.3093121,5857301.243473001
561.4048845,5848052.321847153
563.5218996,5854359.09275696
565.6606737000001,5872289.7378319735
567.8215287,5899742.619892205
570.0047927,5927024.734694405
572.2107997,5955148.342031128
574.4398902,5982782.000908874
576.692411,6007953.509578851
578.9687155,6025930.9359212285
581.2691637,6037019.199977692
583.5941226,6041262.099258124
585.943966,6041354.636143223
588.3190752,6041683.067273462
590.7198384999999,6041467.754912523
593.1466518,6041742.789147303
595.5999188999999,6041124.972451152
598.0800512,6041260.155092709
600.5874682,6041341.94435745
603.1225977000001,6041477.737661351
605.6858758999999,6041622.837493414
608.2777476,6041676.503993847
610.8986664,6041133.061822655
613.549095,6041465.089946993
616.2295054,6041791.690298977
618.940379,6040533.300823512
621.6822068,6041792.865927158
624.4554901,6041083.016048633
627.2607402000001,6039350.521322628
630.0984786,6042240.908248738
632.9692378999999,6041619.014692685
635.8735614,6040884.870700148
638.8120038,6040585.164853947
641.7851312999999,6042451.005702637
644.7935217999999,6041542.722606808
647.8377654,6041498.261911695
650.9184646000001,6042232.794522748
654.0362346,6042557.855055315
657.1917038,6042476.244033152
660.3855139,6042082.307075705
663.6183202999999,6041435.044400591
666.8907926,6043249.233720763
670.2036149,6041753.703505936
673.557486,6041253.712686293
676.9531202000001,6041379.4354951065
680.3912472999999,6042526.206289674
683.8726131,6034394.6779023465
704.2110782000001,6034408.143058947
705.2443688999999,6001476.751476896
706.2810885,5926489.240218572
707.3212499,5796553.722529887
708.3648661000001,5602613.269924725
709.41195,5340322.041612587
710.4625143999999,5008270.949836734
711.5165721,4607884.872153019
712.5741357,4156723.900602465
713.6352181,3699867.615380514
714.6998317000001,3275251.7292207074
715.7679891,2913561.1965372404
716.8397027999999,2638610.145425174
717.9149852,2463083.3367133485
718.9938487000001,2392333.2506083185
720.0763055,2424636.5527081685
721.162368,2544390.2984507373
722.2520481,2720876.6189036896
723.3453581,2924573.507941234
724.4423098,3130931.83119498
725.5429153,3319571.053113372
726.6471863,3477423.115269578
727.7551346,3597095.198525487
728.866772,3677540.313457483
729.9821099,3721703.684980215
731.1011599,3734003.150441658
732.2239335,3720256.9032198233
733.3504419,3685912.0449722833
734.4806963999999,3635004.723145312
735.6147081,3571533.822726118
736.7524882,3498804.204572731
737.8940474,3419158.277133293
739.0393967,3340101.289983452
740.1885467999999,3271222.9146600426
741.3415084,3227182.6808242938
742.498292,3227320.2178914286
743.658908,3287084.185999661
744.8233667999999,3408783.056766678
745.9916785,3594192.794851364
747.1638532000001,3840141.101026168
748.3399009,4138010.865734168
749.5198315,4471896.625601148
750.7036546,4816154.960030578
751.89138,5135017.870853708
753.0830171,5406252.302718901
754.2785752999999,5627369.349020484
755.4780638,5798713.242807322
756.6814917,5920140.045404918
757.8888678999999,5994846.022156414
759.1002014999999,6031277.724336399
760.3155009,6041422.540877156
761.5347749,6041456.116721397
762.7580318,6041363.412736865
763.98528,6041286.075991209
765.2165276000001,6041626.161114726
766.4517825,6041364.2464734325
767.6910527000001,6041606.193474527
768.9343458999999,6041345.548343788
770.1816697,6041270.78928163
771.4330313999999,6041344.87657087
772.6884382999999,6041528.459953505
773.9478975,6041371.111006471
775.211416,6041768.571698408
776.4790005,6041688.286063748
777.7506578,6041419.630934094
779.0263942,6041108.582573384
780.3062162,6041236.293611111
781.5901297,6041015.763583353
782.8781409,6041687.667570801
784.1702554999999,6041695.519285145
785.4664793,6041842.932652517
786.7668176,6041017.010751676
788.0712758,6041178.356482808
789.3798591,6041251.283727039
790.6925722999999,6041311.861557088
792.0094204,6041393.884977872
793.3304079,6041290.985439526
794.6555392000001,6041472.729320486
795.9848187000001,6041567.287435471
797.3182504,6041163.7793804975
798.6558382999999,6041579.083554664
799.9975861,6041014.559745517
801.3434973,6041133.152911719
802.6935752999999,6041374.299341513
804.0478232999999,6041627.707916914
805.4062443,6041267.702490067
806.7688411,6041746.7636660775
808.1356164,6041317.968144717
809.5065726,6041197.777924172
810.881712,6037544.896481733
812.2610367000001,6028394.59190735
813.6445485,6014816.900926956
815.0322493,5998248.768784817
816.4241404,5982416.504881337
817.8202233,5967149.80877832
819.2204991,5951036.45936847
820.6249687999999,5934797.686519957
822.0336331,5927062.981777205
823.4464925999999,5929779.4752374
824.8635477000001,5942045.484309628
826.2847987,5958121.960509658
827.7102456,5973461.706609474
829.1398882,5989882.647950089
830.5737261,6005201.513707697
832.0117589,6021290.13786632
833.4539857000001,6033398.097096953
834.9004057999999,6039936.180928725
836.3510179,6041890.608300451
837.8058209,6041188.413779288
839.2648132999999,6041467.879739725
840.7279934000001,6041280.521402918
842.1953594,6041140.164031638
843.6669092,6041515.730522771
845.1426408,6041428.60068933
846.6225517000001,6041310.586533397
848.1066392999999,6041520.939658328
849.5949009999999,6041297.197510527
851.0873337999999,6041161.849240896
852.5839347000001,6041478.900197905
854.0847002999999,6041287.716090117
855.5896273,6041251.319928652
857.0987119999999,6041367.33564489
858.6119507000001,6041499.11833986
860.1293393999999,6041329.139505252
861.650874,6041459.402341343
863.1765502000001,6041490.657432567
864.7063635,6041257.659023435
866.2403094,6041336.348469251
867.778383,6041149.03002128
869.3205793999999,6041839.850766764
870.8668935000001,6041288.739347925
872.4173199999999,6041183.783607182
873.9718536,6041532.002847607
875.5304886,6041386.940272795
877.0932193,6041328.881488076
878.6600399,6041058.234669288
880.2309443,6041762.417351128
881.8059264000001,6041203.312318431
883.3849798,6041418.003360568
884.9680981,6041429.322478843
886.5552747000002,6041397.31540148
888.1465029,6041060.210288429
889.7417757000001,6041264.359633659
891.3410862,6041602.531741967
892.9444273,6041232.975990633
894.5517916000001,6041555.92160339
896.1631719000001,6041299.317566822
897.7785605,6041622.802593856
899.3979498,6041630.69443692
901.0213321,6041283.673450068
902.6486995,6041479.290664049
904.280044,6041292.442164497
905.9153575,6041270.44394296
907.5546319,6041050.794765208
909.1978586,6041153.945523327
910.8450295,6041256.961517931
912.4961358,6041027.299609391
914.1511691,6041785.9786400935
915.8101205,6041537.5595049225
917.4729813,6041242.926993521
919.1397426,6041077.478600496
920.8103953,6041337.505155128
922.4849303,6041133.543975286
924.1633386,6041576.44108139
925.8456109,6041554.54729999
927.5317378,6041214.256195001
929.22171,6041894.412019456
930.9155179,6041482.448954918
932.6131521,6041583.984047699
934.3146028,6041736.247791188
936.0198606,6041440.082229637
937.7289155,6041409.849225984
939.4417579,6041478.336114589
941.1583779,6041314.983901771
942.8787656,6041395.1008411925
944.6029109,6041840.892728483
946.3308041,6041876.075752604
948.0624349,6040986.72776355
949.7977933,6041480.451556994
951.5368692,6041445.860766117
953.2796523,6041193.790342455
955.0261327,6041281.1139344815
956.7762999,6041352.118376207
958.5301437,6041402.989568533
960.2876539,6041168.233986389
962.0488201,6041106.01089034
963.813632,6041381.707818882
965.5820793,6040956.1186445085
967.3541517,6041766.752679353
969.1298386,6041809.955394045
970.9091298,6040680.684005692
972.6920149,6042111.601190719
974.4784835,6040792.893440379
976.2685251,6041733.956126005
978.0621293,6041590.435390086
979.8592859,6042133.465484602
981.6599843,6042873.602297604
983.4642142,6041213.157967523
985.2719651,6040836.4467942575
987.0832269,6040873.194806333
988.897989,6040841.138829352
990.7162412,6041645.679377751
992.5379731,6041289.37266297
994.3631745,6041552.363521826
996.191835,6031455.916302208
998.0239445,6001213.5884593325
999.8594926,5942307.909043522
1001.698469,5846733.8667527065
1003.540864,5707560.284899212
1005.386668,5522361.6056684535
1007.235869,5285556.154156412
1009.088458,4995908.391635535
1010.944426,4669098.888067725
1012.803762,4326423.245774676
1014.666456,3984820.096130318
1016.532498,3657840.0516418833
1018.401878,3356337.299297148
1020.274588,3091008.3925567083
1022.150616,2866481.986331553
1024.029953,2687686.6733198487
1025.912591,2545569.553534901
1027.798518,2433091.422565682
1029.687726,2340000.9985964247
1031.580205,2259862.4810585207
1033.475945,2183585.1058121133
1035.3749380000002,2107749.907593725
1037.277175,2028780.953520708
1039.182645,1942645.3150049704
1041.09134,1850905.153987476
1043.003251,1752263.8371960246
1044.918368,1648720.01310298
1046.836683,1541831.0127302962
1048.758188,1434952.265840348
1050.682872,1328869.946519811
1052.610728,1226942.3993354845
1054.541747,1132380.159601252
1056.4759210000002,1044806.0206476344
1058.41324,966826.7752076852
1060.353697,897870.1805388415
1062.297282,837964.6889393901
1064.243989,785584.795399283
1066.193809,741325.6278458548
1068.146734,703964.5906869301
1070.102755,670864.5047357813
1072.061865,641802.6148313585
1074.024056,615294.2940189933
1075.989321,590406.671789814
1077.957651,566059.7307356157
1079.92904,542356.2179932783
1081.9034800000002,518507.8847868306
1083.880963,493817.5933955719
1085.861482,469875.9860790502
1087.8450300000002,446496.0053174853
1089.8316,422639.9163826367
1091.821185,400769.2545503244
1093.8137789999998,379901.84814366815
1095.809373,360343.3140932901
1097.807962,341783.01874921826
1099.809539,325250.5982988232
1101.814098,310652.18691938143
1103.821631,297396.6705832861
1105.832134,285578.9999922994
1107.845599,275461.12799395283
1109.86202,266508.4243037332
1111.881392,258712.15499741075
1113.903708,251345.80207787163
1115.928963,245037.40914595497
1117.95715,238888.33559601448
1119.988266,232735.31006177596
1122.022303,226328.7901872597
1124.059256,219348.72089459345
1126.09912,212541.5018875947
1128.14189,205019.6022342709
1130.187561,197205.0203854668
