wave,flux
306.2504509,497.0233994863138
306.5604242,693.5479468183377
306.871524,909.4151591805036
307.18375710000004,1142.746948813579
307.4971302,1417.0569263355578
307.8116501,1710.368832403099
308.1273236,1831.092569423432
308.4441577,1954.102462820361
308.7621594,2090.1505469462136
309.0813356,2234.313603817361
309.4016935,2376.2974514752595
309.7232403,2528.245765983484
310.04598300000004,2671.9120822897826
310.369929,2835.026538537959
310.6950856,2992.9576675807957
311.0214601,3148.5137891395325
311.34906010000003,3317.172568776808
311.6778931,3486.553240658033
312.0079665,3676.821769406845
312.33928810000003,3860.884169414288
312.6718655,4066.840935083467
313.00570639999995,4272.029774979922
313.3408189,4502.7305613111375
313.6772106,4734.329870463896
314.0148896,4985.303319358593
314.3538639,5254.051745626947
314.6941415,5526.028807974079
315.0357308,5822.77254473341
315.37863980000003,6132.578675128785
315.7228769,6450.345144391407
316.0684504,6772.915392234734
316.4153688,7116.0597783598605
316.76364069999994,7455.689614482403
317.1132746,7823.887403099956
317.4642791,8181.638667108327
317.8166631,8543.804141043733
318.1704352,8930.786127358917
318.5256045,9331.129817952942
318.8821799,9751.992979982582
319.2401704,10171.433421291684
319.5995851,10611.791022786105
319.96043330000003,11054.87419007369
320.3227243,11521.745416206964
320.6864673,12010.03030557114
321.0516719,12517.575951721075
321.4183476,13044.43138245125
321.786504,13564.195093640215
322.1561508,14110.671831300158
322.5272977,14694.502038555904
322.8999548,15285.944196869534
323.2741319,15944.751648244532
323.649839,16616.88221905189
324.0270864,17388.999427236304
324.40588419999995,18227.69053714576
324.7862428,19182.061502677145
325.16817260000005,20301.95972293213
325.5516841,21567.615305732004
325.9367879,23018.871121424585
326.32349480000005,24744.77039676466
326.7118154,26662.877054823588
327.1017607,28928.17534004436
327.4933418,31497.997261039483
327.88656960000003,34395.986983614646
328.2814555,37643.979305386696
328.6780106,41301.624874642526
329.0762465,45337.43681889388
329.47617460000004,49902.22160439081
329.8778065,54885.25548180348
330.281154,60422.434221915966
330.6862289,66542.00169714309
331.0930432,73330.91035972537
331.5016088,80790.86717876003
331.911938,88926.31468901904
332.32404310000004,97849.35569480264
332.7379364,107326.36290342144
333.1536305,117475.34213437072
333.571138,128053.59317585448
333.9904716,138964.81094251174
334.4116443,150045.11763702726
334.834669,161147.79317516682
335.2595588,172147.5872010865
335.686327,182691.12341376411
336.114987,192808.30253843265
336.5455522,202356.1660876895
336.9780363,211124.54328553844
337.41245310000005,219112.924193465
337.8488164,226310.5849213593
338.28714019999995,232684.53068981727
338.7274388,238330.15877338743
339.1697264,243397.777583407
339.6140175,248111.7887261848
340.06032660000005,252648.68643259388
340.5086685,257406.0475858863
340.959058,262707.54420337325
341.4115102,268841.422987925
341.8660403,276395.2799101349
342.32266339999995,285463.0536675588
342.7813952,296281.14981304586
343.24225110000003,309025.21547407104
343.70524710000007,323735.74911411776
344.17039889999995,340032.8584667591
344.6377228,357745.4287443775
345.1072349,376362.39672646014
345.5789517,395555.9691958673
346.0528897,414768.3699682492
346.5290657,433419.6358540045
347.0074967,451486.09429566143
347.48819960000003,468578.6487685889
347.9711917,484502.7229574384
348.45649060000005,499596.52640295296
348.9441137,513764.0527049792
349.434079,527416.9832173589
349.9264043,540757.359593518
350.4211078,554261.1503066404
350.9182079,567956.6814969648
351.4177232,582131.4656765998
351.9196722,596784.0818041345
352.42407410000004,611994.885102644
352.9309478,627346.1201449818
353.4403127,642884.4743322942
353.95218839999995,658206.363819193
354.4665945,672821.2685842736
354.983551,686652.3945106043
355.503078,699201.5668988817
356.025196,710340.4205337084
356.5499253,720019.7630923741
357.077287,728444.1852183478
357.6073018,735705.6555647488
358.1399912,742226.2729870782
358.6753765,748488.3064964735
359.2134795,755192.6117383634
359.754322,762929.8399758678
360.2979263,772337.4086744428
360.8443147,783670.6988721804
361.3935098,797363.6638374102
361.9455346,813590.5200325428
362.5004122,831969.4395775619
363.058166,852339.9202474939
363.61881960000005,874150.956762842
364.1823969,896925.403414604
364.7489221,920006.058377074
365.3184196,942556.7527420518
365.8909141,963905.3004934256
366.4664305,983445.3809400684
367.0449943,1000837.4964513069
367.6266307,1015699.099894273
368.2113658,1027551.3029560396
368.7992255,1036085.936266128
369.3902363,1041469.0002464
369.9844249,1043557.5945581103
370.5818182,1042227.5338918668
371.1824436,1037824.009971774
371.7863286000001,1030405.7169617008
372.3935012,1020362.052332292
373.0039896,1008225.8197468964
373.6178223,994227.8496020538
374.2350283,979441.176328188
374.8556368,964516.5481348244
375.4796772,949955.4634675026
376.1071796,936853.4780600852
376.7381741,925774.402253681
377.3726913,917522.7471763731
378.0107622,912748.8157688908
378.652418,911936.908054814
379.2976904,915323.3752492904
379.9466115,923261.3505295238
380.5992136,936029.3562066464
381.2555296,953371.9209825732
381.9155926,975305.7070971908
382.5794362,1001421.9898348365
383.2470943,1031615.184278214
383.9186014,1065030.8370257225
384.5939922,1101997.7908554762
385.2733019,1141983.3834103171
385.9565661,1185075.072094315
386.6438209,1231386.2452311376
387.3351027,1280919.865902129
388.0304484,1334230.9373853735
388.7298955,1391610.42503266
389.4334817,1453441.2570383216
390.1412452,1520168.438193484
390.853225,1591487.528583869
391.56946,1667230.201257291
392.2899901,1746789.5132315396
393.0148555,1829185.159141564
393.7440968,1913531.5938054512
394.4777551,1998319.515730901
395.2158722,2082925.1507397955
395.9584903,2165750.8593582828
396.7056521,2246075.253662769
397.457401,2323086.634505717
398.2137806,2397777.418401271
398.9748353,2468666.362473587
399.7406101,2536246.010385498
400.5111505,2601073.8491426893
401.2865024,2663198.814692011
402.0667126,2723302.72595746
402.8518283,2781507.6422515423
403.6418973,2837742.98052042
404.436968,2892741.760822373
405.2370896,2946169.1866198643
406.0423117,2998554.5945893475
406.8526847,3049661.533005552
407.66825960000006,3099663.533257064
408.4890879,3147601.38626242
409.3152221,3192694.1788811707
410.1467152,3234743.2926313304
410.9836208,3272684.513679823
411.8259934,3305140.489257672
412.673888,3332394.932814273
413.5273605,3353657.463420724
414.38646760000006,3369977.7120698937
415.2512664,3381781.3935951777
416.1218152,3391657.047810224
416.9981727,3400905.3022661824
417.8803987,3413731.316359853
418.7685535,3431536.181434282
419.6626985,3458315.649985525
420.5628957,3496557.220315244
421.4692081,3548721.8350460907
422.3816994,3616073.8564972887
423.3004343,3699704.106278644
424.2254783,3799220.503083445
425.1568978,3913592.4159133607
426.0947602,4040628.404404997
427.0391337,4176624.610893983
427.9900874,4317509.511008684
428.9476917,4459558.952668366
429.9120175,4596807.693778587
430.8831369,4727138.9098435575
431.8611232,4845682.444527503
432.8460504,4951055.934978753
433.8379937,5042757.790352993
434.8370293,5121209.88619794
435.8432345,5189421.215840285
436.8566878,5249843.844505853
437.8774686,5305863.1748345615
438.9056575,5361364.188728677
439.9413364,5418995.222306992
440.9845882,5480777.0543034
442.035497,5547274.269161635
443.0941482,5615739.760283895
444.1606283,5685718.166653237
445.23502520000005,5754838.284618686
446.317428,5819550.887175081
447.407927,5877627.333420877
448.5066141,5926581.880143033
449.6135822,5965289.563606017
450.7289258,5994869.865567316
451.85274060000006,6014974.600075018
452.9851239,6028759.027928718
454.1261744,6035874.968924527
455.2759921,6040106.155271373
456.4346788,6041575.841899998
457.6023374,6041113.559129683
458.7790727,6040981.507127825
459.9649909,6041699.16973735
461.1601998,6041139.5157539975
462.364809,6041426.121083204
463.5789295,6041517.037465967
464.8026741000001,6041734.662773151
466.0361575,6041411.98041783
467.2794956999999,6040905.670517547
468.5328070000001,6041752.80785666
469.7962111000001,6041346.568045308
471.0698299,6041443.196655203
472.3537868,6041038.927081592
473.6482074,6041448.158279303
474.9532192,6041428.418659383
476.2689517,6041466.923087128
477.5955362,6041418.239880227
478.93310639999993,6041306.393415302
480.2817979,6041356.289429712
481.6417484,6041890.549667796
483.01309800000007,6041578.61106447
484.3959889,6041329.955869531
485.7905654,6041597.390886477
487.1969743,6041534.629865685
488.6153648,6041156.815110507
490.0458884,6041574.987577493
491.488699,6040903.614367298
492.943953,6041434.361902688
494.4118094,6041444.968159035
495.8924299,6041617.393187908
497.3859785,6042116.429475595
498.8926222,6041451.195892944
500.4125306,6041442.147380906
501.9458762,6041438.733132527
503.4928341,6041221.899438802
505.0535827,6041341.205724562
506.628303,6041145.013468881
508.2171791999999,6041266.782270718
509.8203986,6041398.433192585
511.4381515,6041492.435604473
513.0706316000001,6040989.14983636
514.7180356,6041485.735429286
516.3805639,6041415.572624544
518.0584200000001,6041537.87103229
519.7518110000001,6041221.188713487
521.4609475999999,6041187.09853293
523.186044,6041055.622876825
524.927318,6041136.277293223
526.6849915,6041231.272639465
528.45929,6041011.3022838775
530.2504428000001,6041355.421048325
532.0586836,6041502.11242677
533.8842498,6041285.66474421
535.7273833,6041545.153305029
537.5883299,6041451.618501194
539.46734,6041354.13894935
541.3646685,6041589.06773473
543.2805745000001,6041201.3543363
545.2153222000001,6041736.315857051
547.1691801,6041543.160265064
549.1424218999999,6041382.0426947335
551.1353259,6041315.296389078
553.1481756000001,6041508.733965834
555.1812597,6041214.08300353
557.2348721,6041766.689011117
559.3093121,6041333.250360402
561.4048845,6041418.857453869
563.5218996,6041314.724437444
565.6606737000001,6041527.6114561325
567.8215287,6041730.186689151
570.0047927,6041475.403710823
572.2107997,6041113.84098537
574.4398902,6041166.194025703
576.692411,6041969.377244722
578.9687155,6041843.253372083
581.2691637,6040910.419295262
583.5941226,6041554.003549404
585.943966,6041311.958739908
588.3190752,6041316.174425462
590.7198384999999,6041403.713892886
593.1466518,6041397.533513622
595.5999188999999,6041213.014278253
598.0800512,6041154.943534385
600.5874682,6041026.943956667
603.1225977000001,6041479.284852531
605.6858758999999,6041390.684330832
608.2777476,6041553.972714008
610.8986664,6040821.127008981
613.549095,6041462.028243229
616.2295054,6040729.578716494
618.940379,6041682.567243626
621.6822068,6042044.732853442
624.4554901,6041946.161076764
627.2607402000001,6040877.247418145
630.0984786,6043710.015494206
632.9692378999999,6039967.26746937
635.8735614,6039806.772404644
638.8120038,6040980.357057798
641.7851312999999,6043701.012109213
644.7935217999999,6038188.295269684
647.8377654,6040052.341573168
650.9184646000001,6040933.269549185
654.0362346,6042619.483134626
655.7463047,6041098.4605098935
656.6225636,6041247.998199501
657.1917038,6041089.402800677
657.501561,6041213.102491157
658.3833105,6041675.173506688
659.2678255,6041354.862794315
660.1551197000001,6041644.441429223
661.0452068,6041939.220913758
661.9381002,6041391.46357243
662.8338137000001,6041566.783747729
663.7323607999999,6041506.331844827
664.6337553,6041395.154352518
665.5380107000001,6041174.928814688
666.4451407,6041789.567108886
667.355159,6041768.990847449
668.2680793,6041025.600701578
669.1839152000001,6041878.621230503
670.1026805,6041536.203329182
671.0243889,6041817.049782247
671.949054,6041288.980459927
672.8766895,6041271.116313018
673.8073092,6041228.570076198
674.7409267,6041021.87285016
675.6775557999999,6041509.762488304
676.6172101,6041406.773123708
677.5599033,6041372.668337625
678.5056492000001,6041317.116322317
679.4544612999999,6041289.512202607
680.4063535,6041134.786884902
681.3613392999999,6041533.216924714
682.3194324,6041266.774412323
683.2806465,6041136.6792547135
684.2449952000001,6041656.735559247
685.2124921,6041453.935218197
686.1831509,6041477.807051958
687.1569850999999,6041447.407197123
688.1340083,6040951.0301357685
689.1142341,6041551.977994118
690.097676,6041295.175980351
691.0843474999999,6041496.867909148
692.0742622,6041330.458684293
693.0674334,6041360.913656178
694.0638748,6041843.168072684
695.0635996,6041188.541090461
696.0666212,6041507.856637272
697.0729531000001,6041130.160638803
698.0826086,6041226.637563645
699.0956008999999,6041517.02129734
700.1119432999999,6041433.962947777
701.1316491,6041447.719601933
702.1547314,6041815.003225118
703.1812034,6040981.717873668
704.2110782000001,6040967.6351438975
705.2443688999999,6041738.733177078
706.2810885,6041548.596795866
707.3212499,6041271.804002987
708.3648661000001,6041728.899340636
709.41195,6041584.068917628
710.4625143999999,6041240.915375478
711.5165721,6041437.214353087
712.5741357,6041658.888258887
713.6352181,6041853.817453749
714.6998317000001,6041671.885354993
715.7679891,6041130.504671548
716.8397027999999,6041436.080231153
717.9149852,6041318.773342314
718.9938487000001,6041110.558645267
720.0763055,6041722.756696959
721.162368,6041509.564044408
722.2520481,6041873.071762422
723.3453581,6041526.665576748
724.4423098,6041324.880358534
725.5429153,6041484.095598589
726.6471863,6041026.719533288
727.7551346,6041408.608434394
728.866772,6041784.03417271
729.9821099,6041725.843732835
731.1011599,6041513.788835146
732.2239335,6041210.168393136
733.3504419,6041645.331585477
734.4806963999999,6040885.036336835
735.6147081,6041689.546074187
736.7524882,6041305.1218696935
737.8940474,6041200.265325408
739.0393967,6041800.426085106
740.1885467999999,6041282.587589228
741.3415084,6041523.938211418
742.498292,6041349.3987891525
743.658908,6041682.543470183
744.8233667999999,6041026.177558086
745.9916785,6041609.620689474
747.1638532000001,6041236.894622227
748.3399009,6041267.287163357
749.5198315,6040997.277771267
750.7036546,6041894.717999257
751.89138,6041019.960727064
753.0830171,6041294.731642417
754.2785752999999,6041196.609560045
755.4780638,6040896.320479778
756.6814917,6041697.931365322
757.8888678999999,6041314.892698192
759.1002014999999,6041291.76002809
760.3155009,6041289.917748722
761.5347749,6036780.657062923
762.7580318,6023964.05980649
763.98528,5997712.657800937
765.2165276000001,5955951.308974412
766.4517825,5895347.040713949
767.6910527000001,5813382.031961722
768.9343458999999,5705559.672415217
770.1816697,5569875.59638177
771.4330313999999,5410181.127787641
772.6884382999999,5231843.763107789
773.9478975,5039085.463048446
775.211416,4832980.524139859
776.4790005,4616379.994471286
777.7506578,4391418.445752092
779.0263942,4162201.13336868
780.3062162,3932472.826492075
781.5901297,3704004.682353642
782.8781409,3478031.841765556
784.1702554999999,3257889.636634962
785.4664793,3047456.7490209923
786.7668176,2849790.805837604
788.0712758,2667880.449633716
789.3798591,2503522.8423466543
790.6925722999999,2356380.8811159288
792.0094204,2226130.71682236
793.3304079,2110622.710441304
794.6555392000001,2007214.1856742024
795.9848187000001,1913150.76315576
797.3182504,1825846.586434492
798.6558382999999,1742977.564362195
799.9975861,1663641.2775876955
801.3434973,1585741.904297726
802.6935752999999,1510419.1496726065
804.0478232999999,1437564.072187647
805.4062443,1367628.7720231244
806.7688411,1301695.3845820487
808.1356164,1240120.060906805
809.5065726,1183657.899297768
810.881712,1132334.1536698125
812.2610367000001,1085876.9113334347
813.6445485,1043587.3167137622
815.0322493,1004697.6743276272
816.4241404,968409.006576656
817.8202233,933318.2401410504
819.2204991,899116.5702209264
820.6249687999999,864897.1098753907
822.0336331,830232.955694159
823.4464925999999,794968.3611602952
824.8635477000001,759564.773113662
826.2847987,724118.5188902372
827.7102456,689123.515936417
829.1398882,655092.694732433
830.5737261,622111.7128145909
832.0117589,590517.13129382
833.4539857000001,560695.1867076791
834.9004057999999,532372.5912337779
836.3510179,505560.8878744025
837.8058209,479851.1261874744
839.2648132999999,455164.5877465536
840.7279934000001,431060.8606945975
842.1953594,407389.4142823333
843.6669092,384107.6578465593
845.1426408,361062.00322486064
846.6225517000001,338163.1508206549
848.1066392999999,315524.3289994862
849.5949009999999,293031.8247583148
851.0873337999999,271018.12152723875
852.5839347000001,249467.1316309073
854.0847002999999,228473.33789758905
855.5896273,208273.924826504
857.0987119999999,188741.7572744613
858.6119507000001,170146.76381401625
860.1293393999999,152510.40892807208
861.650874,136164.089540954
863.1765502000001,120960.25721488072
864.7063635,107014.17990464352
866.2403094,94338.80468785512
867.778383,82941.22315808732
869.3205793999999,72875.05904464095
870.8668935000001,63972.42718596479
872.4173199999999,56125.52867552271
873.9718536,49276.025414478776
875.5304886,43293.759152407234
877.0932193,38158.80559640124
878.6600399,33686.803771548395
880.2309443,29739.35129457298
881.8059264000001,26120.05528725268
883.3849798,22804.046260033087
884.9680981,19749.757825731333
886.5552747000002,16862.142316048292
888.1465029,14146.787363960331
889.7417757000001,11569.155556185571
891.3410862,9090.57184702946
892.9444273,6825.763449366958
894.5517916000001,4938.185893382236
896.1631719000001,3421.853088742012
897.7785605,2209.524925941165
899.3979498,1303.306992236457
901.0213321,660.9184241964713
902.6486995,256.61736409407644
904.280044,73.1600683633893
905.9153575,34.8168960149347
907.5546319,13.697765457150387
909.1978586,4.806466342541204
910.8450295,-3.375389010866936
912.4961358,-1.945838213316483
914.1511691,2.143651113792037
915.8101205,-5.588724546315235
917.4729813,-0.0847166052511163
919.1397426,-3.16334733574574
920.8103953,0.4415389257802514
922.4849303,4.762325317972104
924.1633386,0.3367390488550703
925.8456109,-2.954393976771409
927.5317378,1.1213101835771502
929.22171,-1.1784167152442042
930.9155179,-0.1959820145603092
932.6131521,2.623685655736
934.3146028,3.508808964553748
936.0198606,-1.4092467872262948
937.7289155,3.357051064217856
939.4417579,-0.1433549982058296
941.1583779,3.4924909085186995
942.8787656,1.7552833197681612
944.6029109,1.0438529115219704
946.3308041,1.61116527028671
948.0624349,-1.6406580822307812
949.7977933,0.0303627546615611
951.5368692,1.0054468414848572
953.2796523,2.8825024563870287
955.0261327,2.038386217692225
956.7762999,-0.9961022088620024
958.5301437,0.3059147389799099
960.2876539,-0.9832630871108788
962.0488201,-2.0465408019560334
963.813632,-3.145091001415989
965.5820793,-1.6500203217407448
967.3541517,-3.931627784697047
969.1298386,2.105018682888055
970.9091298,1.7033514814049606
972.6920149,-2.722886210281976
974.4784835,-0.4818640940231268
976.2685251,-0.3512474515183997
978.0621293,-4.374340339645181
979.8592859,-0.1795326001418748
981.6599843,1.1326973448076738
983.4642142,-1.3699780389486216
985.2719651,1.4194941617328218
987.0832269,-2.0340671427426784
988.897989,0.5951808195257647
990.7162412,0.8251880571268331
992.5379731,0.5697323218961414
994.3631745,-0.1305353913543167
996.191835,-2.5234487474089846
998.0239445,-1.4046168974828863
999.8594926,-1.721517714247634
1001.698469,0.1940873766338494
1003.540864,-2.4828015120146354
1005.386668,-0.2560380296789093
1007.235869,-1.0135027700346122
1009.088458,-1.3882057339090028
1010.944426,-1.4595044843212577
1012.803762,2.695458672122457
1014.666456,-1.7623914860927488
1016.532498,3.563393467847685
1018.401878,0.1326549887647255
1020.274588,2.036567084308109
1022.150616,-4.73185969603898
1024.029953,-1.7019446622146523
1025.912591,-1.3569396311604591
1027.798518,-1.7565954216705633
1029.687726,-0.98573078831702
1031.580205,0.4841937252135517
1033.475945,0.8186167813122637
1035.3749380000002,2.5893260434548018
1037.277175,1.538102537464364
1039.182645,-2.0127188922791954
