wave,flux
306.2504509,459.1604847213675
306.5604242,639.4565609600126
306.871524,839.693217997186
307.18375710000004,1066.6905602958616
307.4971302,1307.458080523758
307.8116501,1577.9694277152564
308.1273236,1675.2865106242596
308.4441577,1774.6685522632536
308.7621594,1874.0075971374392
309.0813356,1981.8633880592347
309.4016935,2104.317680583124
309.7232403,2229.6918513056103
310.04598300000004,2358.84278614772
310.369929,2498.687692684126
310.6950856,2642.6841575444487
311.0214601,2806.655236960865
311.34906010000003,2972.582502702321
311.6778931,3154.3829654074675
312.0079665,3336.1787667106187
312.33928810000003,3517.938351329645
312.6718655,3707.156888100369
313.00570639999995,3915.709004572904
313.3408189,4119.382698022691
313.6772106,4330.646849004766
314.0148896,4559.970429220608
314.3538639,4802.253630718922
314.6941415,5053.707580282857
315.0357308,5318.79520868826
315.37863980000003,5600.813847138394
315.7228769,5888.123008660466
316.0684504,6196.53923836244
316.4153688,6511.231817644033
316.76364069999994,6845.221741678054
317.1132746,7186.8005369483535
317.4642791,7540.744635647704
317.8166631,7912.954670651539
318.1704352,8264.390873533359
318.5256045,8657.95688777195
318.8821799,9037.357530466745
319.2401704,9426.468243061376
319.5995851,9835.92382994109
319.96043330000003,10242.640314464412
320.3227243,10648.192258093355
320.6864673,11079.00933161317
321.0516719,11513.268724915994
321.4183476,11965.62878276008
321.786504,12430.243519663343
322.1561508,12911.203772883233
322.5272977,13392.16000941921
322.8999548,13950.770321481756
323.2741319,14529.373018309858
323.649839,15201.335764926043
324.0270864,15913.274927550268
324.40588419999995,16766.068815259492
324.7862428,17705.66744175758
325.16817260000005,18771.542226828504
325.5516841,20035.630563923627
325.9367879,21436.6198112646
326.32349480000005,23142.448802231986
326.7118154,25090.42821180199
327.1017607,27394.517079633875
327.4933418,30125.163259372588
327.88656960000003,33400.859479061764
328.2814555,37212.868148269015
328.6780106,41681.20075492099
329.0762465,46794.581130416336
329.47617460000004,52618.59456913535
329.8778065,59024.65098208879
330.281154,65972.1496867847
330.6862289,73294.44401771964
331.0930432,80896.65039270112
331.5016088,88511.3087978303
331.911938,96008.94275617806
332.32404310000004,103182.03165965644
332.7379364,109933.94714487669
333.1536305,116129.74841173156
333.571138,121812.53867526952
333.9904716,127014.01954748228
334.4116443,131893.3364654627
334.834669,136639.24928869633
335.2595588,141428.68407594337
335.686327,146470.6105283793
336.114987,152057.6383635042
336.5455522,158122.94317005802
336.9780363,164948.22189232855
337.41245310000005,172375.14269870362
337.8488164,180433.367048468
338.28714019999995,188947.52053037987
338.7274388,197830.45865293185
339.1697264,206962.04063794325
339.6140175,216251.72848779827
340.06032660000005,225498.73557356285
340.5086685,234738.4283273345
340.959058,244009.8901116425
341.4115102,253246.8348510452
341.8660403,262716.5053693016
342.32266339999995,272363.9241915327
342.7813952,282343.2941964933
343.24225110000003,292841.74940991245
343.70524710000007,303945.1287895836
344.17039889999995,315791.0354685259
344.6377228,328486.55018225306
345.1072349,342076.7403082489
345.5789517,356484.29846705444
346.0528897,371775.15819787857
346.5290657,387934.7259071708
347.0074967,404532.4687441505
347.48819960000003,421644.6418954568
347.9711917,438993.7286796568
348.45649060000005,456413.4387679121
348.9441137,473574.1838347463
349.434079,490276.7165802972
349.9264043,506438.2365796983
350.4211078,521853.7916655096
350.9182079,536478.81732953
351.4177232,550315.1188825368
351.9196722,563462.9408960451
352.42407410000004,576138.4843787354
352.9309478,588529.1928008301
353.4403127,600904.9342676696
353.95218839999995,613576.4768930918
354.4665945,626659.2241721511
354.983551,640520.3006788897
355.503078,655045.3277562624
356.025196,670464.6445211512
356.5499253,686687.3521369167
357.077287,703418.1779118293
357.6073018,720589.0417227916
358.1399912,737787.8585213417
358.6753765,754984.3339302518
359.2134795,772021.293746858
359.754322,788558.7511044255
360.2979263,804246.929088009
360.8443147,819427.721787277
361.3935098,833556.293431008
361.9455346,846960.0298249413
362.5004122,859533.1232042656
363.058166,871433.2212647214
363.61881960000005,882847.6009682461
364.1823969,894000.4236726881
364.7489221,905233.5860958258
365.3184196,917060.48442381
365.8909141,929856.5526364858
366.4664305,943915.2880618704
367.0449943,959413.8755283328
367.6266307,976498.6567864752
368.2113658,994841.6350048824
368.7992255,1014185.4708812129
369.3902363,1033279.6572781564
369.9844249,1051566.510720299
370.5818182,1067788.1133443057
371.1824436,1080316.7035203483
371.7863286000001,1088815.5136699162
372.3935012,1091980.3710458209
373.0039896,1089919.44936707
373.6178223,1082384.169507224
374.2350283,1070403.3074859434
374.8556368,1055104.4226568192
375.4796772,1038118.6316683112
376.1071796,1020954.3462220688
376.7381741,1005302.7414417455
377.3726913,993053.9702686436
378.0107622,985274.9509199671
378.652418,983038.0147573568
379.2976904,987139.8845186832
379.9466115,997415.5130310165
380.5992136,1014116.1513122248
381.2555296,1036749.2893606636
381.9155926,1064666.5546246069
382.5794362,1097031.6161755985
383.2470943,1133369.8689639654
383.9186014,1173147.2062279854
384.5939922,1215535.8216193388
385.2733019,1260645.2924888204
385.9565661,1308076.625944795
386.6438209,1358551.048611895
387.3351027,1411598.8666774535
388.0304484,1468513.8943983573
388.7298955,1529029.1991483944
389.4334817,1593349.895190919
390.1412452,1662058.053909704
390.853225,1734372.0199010312
391.56946,1809414.0331211956
392.2899901,1885569.0211444765
393.0148555,1960992.636694756
393.7440968,2034063.227403984
394.4777551,2103517.8644946404
395.2158722,2168790.360151864
395.9584903,2228722.00765684
396.7056521,2284344.2811221946
397.457401,2338427.3708024886
398.2137806,2393777.952474588
398.9748353,2454705.3130851267
399.7406101,2524073.755788296
400.5111505,2606378.735275552
401.2865024,2703171.8147398164
402.0667126,2816035.82694086
402.8518283,2946177.575043273
403.6418973,3089438.13564149
404.436968,3243484.189669225
405.2370896,3403583.910772769
406.0423117,3564415.936312083
406.8526847,3721175.371902057
407.66825960000006,3868897.852479895
408.4890879,4004246.6538641537
409.3152221,4124357.172273799
410.1467152,4228583.674733859
410.9836208,4316352.99160362
411.8259934,4388462.518432538
412.673888,4446276.146423487
413.5273605,4492118.354744552
414.38646760000006,4527284.00480783
415.2512664,4554987.931186896
416.1218152,4576340.2671571765
416.9981727,4594009.523188045
417.8803987,4609977.66737996
418.7685535,4626364.054820242
419.6626985,4645050.142216532
420.5628957,4667062.212309137
421.4692081,4694584.904304725
422.3816994,4727126.360517753
423.3004343,4766443.135631865
424.2254783,4812331.698271833
425.1568978,4864062.8902675165
426.0947602,4920973.128954064
427.0391337,4982986.37539476
427.9900874,5049156.792351039
428.9476917,5118447.30301152
429.9120175,5189793.757327605
430.8831369,5261873.095781309
431.8611232,5333886.5624551205
432.8460504,5404798.09279858
433.8379937,5474141.520420514
434.8370293,5540872.3415023815
435.8432345,5605263.9191906685
436.8566878,5666274.5433811415
437.8774686,5723674.679527245
438.9056575,5776734.584355549
439.9413364,5827014.053539543
440.9845882,5872718.320787137
442.035497,5914702.249891558
443.0941482,5949945.389498526
444.1606283,5978243.219758904
445.23502520000005,6000838.786263242
446.317428,6017208.423997252
447.407927,6029160.546814888
448.5066141,6036716.859279382
449.6135822,6040180.732230417
450.7289258,6041338.885662708
451.85274060000006,6041086.623115734
452.9851239,6041277.087025872
454.1261744,6041322.128044577
455.2759921,6041392.461792851
456.4346788,6041361.555687317
457.6023374,6041601.505264278
458.7790727,6041593.9374076
459.9649909,6041388.564002522
461.1601998,6041369.879375625
462.364809,6041518.505960704
463.5789295,6041077.802922668
464.8026741000001,6041875.229752162
466.0361575,6041760.48444823
467.2794956999999,6041194.8468362335
468.5328070000001,6041638.7807891285
469.7962111000001,6041314.928520585
471.0698299,6041720.475235044
472.3537868,6041148.812140022
473.6482074,6041484.418320337
474.9532192,6041255.375971665
476.2689517,6042043.806732457
477.5955362,6041624.364264525
478.93310639999993,6041645.436966849
480.2817979,6041512.539898347
481.6417484,6041471.8469145065
483.01309800000007,6041658.294248478
484.3959889,6041445.586616267
485.7905654,6041423.392361019
487.1969743,6041502.399246416
488.6153648,6041081.047734161
490.0458884,6041727.489066677
491.488699,6041263.910799786
492.943953,6041581.472206417
494.4118094,6041526.706165609
495.8924299,6041347.030172351
497.3859785,6041138.404409427
498.8926222,6041527.88531902
500.4125306,6041501.5017229365
501.9458762,6041439.265925357
503.4928341,6041615.855829886
505.0535827,6041283.928807736
506.628303,6041362.849218452
508.2171791999999,6041801.428311124
509.8203986,6041058.350058019
511.4381515,6040994.233526068
513.0706316000001,6041338.988173576
514.7180356,6041108.230041131
516.3805639,6041309.953365828
518.0584200000001,6041140.099182148
519.7518110000001,6041693.156843307
521.4609475999999,6041424.394256893
523.186044,6041399.431222573
524.927318,6041171.55971978
526.6849915,6040898.65386605
528.45929,6041245.935715873
530.2504428000001,6041269.008232596
532.0586836,6041307.674064425
533.8842498,6041560.356897132
535.7273833,6040979.704110202
537.5883299,6041184.711977713
539.46734,6041216.40280836
541.3646685,6040979.14816277
543.2805745000001,6041469.995408255
545.2153222000001,6041481.101220929
547.1691801,6041391.020860762
549.1424218999999,6041285.307159003
551.1353259,6040798.299302981
553.1481756000001,6041420.341794176
555.1812597,6041420.352345343
557.2348721,6041565.015079892
559.3093121,6041672.199163628
561.4048845,6040863.999108657
563.5218996,6041288.285595323
565.6606737000001,6040906.925940068
567.8215287,6041258.14251133
570.0047927,6041161.772128197
572.2107997,6041206.128465222
574.4398902,6041064.597379266
576.692411,6041644.841620973
578.9687155,6041024.428884893
581.2691637,6041569.609034406
583.5941226,6041403.733992387
585.943966,6041588.633770035
588.3190752,6040998.3105045
590.7198384999999,6040977.767610316
593.1466518,6041169.970793046
595.5999188999999,6041642.198562983
598.0800512,6041586.282936099
600.5874682,6041167.273757063
603.1225977000001,6040987.460546449
605.6858758999999,6041084.25380325
608.2777476,6041585.411058797
610.8986664,6040903.088263557
613.549095,6041454.456675637
616.2295054,6041498.837900791
618.940379,6041631.092914343
621.6822068,6041303.411752646
624.4554901,6041144.690684098
627.2607402000001,6041785.890637637
630.0984786,6041787.007180028
632.9692378999999,6043874.997460322
635.8735614,6041266.321399038
638.8120038,6040605.472318026
641.7851312999999,6040190.463714088
644.7935217999999,6040190.8939989
647.8377654,6043507.524523008
650.9184646000001,6039787.573554195
654.0362346,6042047.509884076
657.1917038,6041875.722916481
660.3855139,6040764.200592573
662.8338137000001,6041566.783747729
663.6183202999999,6041560.641139675
663.7323607999999,6041506.331844827
664.6337553,6041395.154352518
665.5380107000001,6041174.928814688
666.4451407,6041789.567108886
667.355159,6041768.990847449
668.2680793,6041025.600701578
669.1839152000001,6041878.621230503
670.1026805,6041536.203329182
671.0243889,6041817.049782247
671.949054,6041288.980459927
672.8766895,6041271.116313018
673.8073092,6041228.570076198
674.7409267,6041021.87285016
675.6775557999999,6041509.762488304
676.6172101,6041406.773123708
677.5599033,6041372.668337625
678.5056492000001,6041317.116322317
679.4544612999999,6041289.512202607
680.4063535,6041134.786884902
681.3613392999999,6041533.216924714
682.3194324,6041266.774412323
683.2806465,6041136.6792547135
684.2449952000001,6041656.735559247
685.2124921,6041453.935218197
686.1831509,6041477.807051958
687.1569850999999,6041447.407197123
688.1340083,6040951.0301357685
689.1142341,6041551.977994118
690.097676,6041295.175980351
691.0843474999999,6041496.867909148
692.0742622,6041330.458684293
693.0674334,6041360.913656178
694.0638748,6041843.168072684
695.0635996,6041188.541090461
696.0666212,6041507.856637272
697.0729531000001,6041130.160638803
698.0826086,6041226.637563645
699.0956008999999,6041517.02129734
700.1119432999999,6041433.962947777
701.1316491,6041447.719601933
702.1547314,6041815.003225118
703.1812034,6040981.717873668
704.2110782000001,6040967.6351438975
705.2443688999999,6041738.733177078
706.2810885,6041548.596795866
707.3212499,6041271.804002987
708.3648661000001,6041728.899340636
709.41195,6041584.068917628
710.4625143999999,6041240.915375478
711.5165721,6041437.214353087
712.5741357,6041658.888258887
713.6352181,6041853.817453749
714.6998317000001,6041671.885354993
715.7679891,6041130.504671548
716.8397027999999,6041436.080231153
717.9149852,6041318.773342314
718.9938487000001,6041110.558645267
720.0763055,6041722.756696959
721.162368,6041509.564044408
722.2520481,6041873.071762422
723.3453581,6041526.665576748
724.4423098,6041324.880358534
725.5429153,6041484.095598589
726.6471863,6041026.719533288
727.7551346,6041408.608434394
728.866772,6041784.03417271
729.9821099,6041725.843732835
731.1011599,6041513.788835146
732.2239335,6041210.168393136
733.3504419,6041645.331585477
734.4806963999999,6040885.036336835
735.6147081,6041689.546074187
736.7524882,6041305.1218696935
737.8940474,6041200.265325408
739.0393967,6041800.426085106
740.1885467999999,6041282.587589228
741.3415084,6041523.938211418
742.498292,6041349.3987891525
743.658908,6041682.543470183
744.8233667999999,6041026.177558086
745.9916785,6041609.620689474
747.1638532000001,6041236.894622227
748.3399009,6041267.287163357
749.5198315,6040997.277771267
750.7036546,6041894.717999257
751.89138,6041019.960727064
753.0830171,6041294.731642417
754.2785752999999,6041196.609560045
755.4780638,6040896.320479778
756.6814917,6041697.931365322
757.8888678999999,6041314.892698192
759.1002014999999,6041291.76002809
760.3155009,6041289.917748722
761.5347749,6036780.657062923
762.7580318,6023964.05980649
763.98528,5997712.657800937
765.2165276000001,5955951.308974412
766.4517825,5895347.040713949
767.6910527000001,5813382.031961722
768.9343458999999,5705559.672415217
770.1816697,5569875.59638177
771.4330313999999,5410181.127787641
772.6884382999999,5231843.763107789
773.9478975,5039085.463048446
775.211416,4832980.524139859
776.4790005,4616379.994471286
777.7506578,4391418.445752092
779.0263942,4162201.13336868
780.3062162,3932472.826492075
781.5901297,3704004.682353642
782.8781409,3478031.841765556
784.1702554999999,3257889.636634962
785.4664793,3047456.7490209923
786.7668176,2849790.805837604
788.0712758,2667880.449633716
789.3798591,2503522.8423466543
790.6925722999999,2356380.8811159288
792.0094204,2226130.71682236
793.3304079,2110622.710441304
794.6555392000001,2007214.1856742024
795.9848187000001,1913150.76315576
797.3182504,1825846.586434492
798.6558382999999,1742977.564362195
799.9975861,1663641.2775876955
801.3434973,1585741.904297726
802.6935752999999,1510419.1496726065
804.0478232999999,1437564.072187647
805.4062443,1367628.7720231244
806.7688411,1301695.3845820487
808.1356164,1240120.060906805
809.5065726,1183657.899297768
810.881712,1132334.1536698125
812.2610367000001,1085876.9113334347
813.6445485,1043587.3167137622
815.0322493,1004697.6743276272
816.4241404,968409.006576656
817.8202233,933318.2401410504
819.2204991,899116.5702209264
820.6249687999999,864897.1098753907
822.0336331,830232.955694159
823.4464925999999,794968.3611602952
824.8635477000001,759564.773113662
826.2847987,724118.5188902372
827.7102456,689123.515936417
829.1398882,655092.694732433
830.5737261,622111.7128145909
832.0117589,590517.13129382
833.4539857000001,560695.1867076791
834.9004057999999,532372.5912337779
836.3510179,505560.8878744025
837.8058209,479851.1261874744
839.2648132999999,455164.5877465536
840.7279934000001,431060.8606945975
842.1953594,407389.4142823333
843.6669092,384107.6578465593
845.1426408,361062.00322486064
846.6225517000001,338163.1508206549
848.1066392999999,315524.3289994862
849.5949009999999,293031.8247583148
851.0873337999999,271018.12152723875
852.5839347000001,249467.1316309073
854.0847002999999,228473.33789758905
855.5896273,208273.924826504
857.0987119999999,188741.7572744613
858.6119507000001,170146.76381401625
860.1293393999999,152510.40892807208
861.650874,136164.089540954
863.1765502000001,120960.25721488072
864.7063635,107014.17990464352
866.2403094,94338.80468785512
867.778383,82941.22315808732
869.3205793999999,72875.05904464095
870.8668935000001,63972.42718596479
872.4173199999999,56125.52867552271
873.9718536,49276.025414478776
875.5304886,43293.759152407234
877.0932193,38158.80559640124
878.6600399,33686.803771548395
880.2309443,29739.35129457298
881.8059264000001,26120.05528725268
883.3849798,22804.046260033087
884.9680981,19749.757825731333
886.5552747000002,16862.142316048292
888.1465029,14146.787363960331
889.7417757000001,11569.155556185571
891.3410862,9090.57184702946
892.9444273,6825.763449366958
894.5517916000001,4938.185893382236
896.1631719000001,3421.853088742012
897.7785605,2209.524925941165
899.3979498,1303.306992236457
901.0213321,660.9184241964713
902.6486995,256.61736409407644
904.280044,73.1600683633893
905.9153575,34.8168960149347
907.5546319,13.697765457150387
909.1978586,4.806466342541204
910.8450295,-3.375389010866936
912.4961358,-1.945838213316483
914.1511691,2.143651113792037
915.8101205,-5.588724546315235
917.4729813,-0.0847166052511163
919.1397426,-3.16334733574574
920.8103953,0.4415389257802514
922.4849303,4.762325317972104
924.1633386,0.3367390488550703
925.8456109,-2.954393976771409
927.5317378,1.1213101835771502
929.22171,-1.1784167152442042
930.9155179,-0.1959820145603092
932.6131521,2.623685655736
934.3146028,3.508808964553748
936.0198606,-1.4092467872262948
937.7289155,3.357051064217856
939.4417579,-0.1433549982058296
941.1583779,3.4924909085186995
942.8787656,1.7552833197681612
944.6029109,1.0438529115219704
946.3308041,1.61116527028671
948.0624349,-1.6406580822307812
949.7977933,0.0303627546615611
951.5368692,1.0054468414848572
953.2796523,2.8825024563870287
955.0261327,2.038386217692225
956.7762999,-0.9961022088620024
958.5301437,0.3059147389799099
960.2876539,-0.9832630871108788
962.0488201,-2.0465408019560334
963.813632,-3.145091001415989
965.5820793,-1.6500203217407448
967.3541517,-3.931627784697047
969.1298386,2.105018682888055
970.9091298,1.7033514814049606
972.6920149,-2.722886210281976
974.4784835,-0.4818640940231268
976.2685251,-0.3512474515183997
978.0621293,-4.374340339645181
979.8592859,-0.1795326001418748
981.6599843,1.1326973448076738
983.4642142,-1.3699780389486216
985.2719651,1.4194941617328218
987.0832269,-2.0340671427426784
988.897989,0.5951808195257647
990.7162412,0.8251880571268331
992.5379731,0.5697323218961414
994.3631745,-0.1305353913543167
996.191835,-2.5234487474089846
998.0239445,-1.4046168974828863
999.8594926,-1.721517714247634
1001.698469,0.1940873766338494
1003.540864,-2.4828015120146354
1005.386668,-0.2560380296789093
1007.235869,-1.0135027700346122
1009.088458,-1.3882057339090028
1010.944426,-1.4595044843212577
1012.803762,2.695458672122457
1014.666456,-1.7623914860927488
1016.532498,3.563393467847685
1018.401878,0.1326549887647255
1020.274588,2.036567084308109
1022.150616,-4.73185969603898
1024.029953,-1.7019446622146523
1025.912591,-1.3569396311604591
1027.798518,-1.7565954216705633
1029.687726,-0.98573078831702
1031.580205,0.4841937252135517
1033.475945,0.8186167813122637
1035.3749380000002,2.5893260434548018
1037.277175,1.538102537464364
1039.182645,-2.0127188922791954
1041.09134,2.6250894347966467
1043.003251,0.2137404881779373
1044.918368,-0.0573575810121391
1046.836683,0.7728066703273068
1048.758188,3.079024708981095
1050.682872,1.7863592040068756
