wave,flux
306.2504509,156.0986701289803
306.5604242,222.29283942064217
306.871524,290.54247881562844
307.18375710000004,370.9459241473635
307.4971302,471.5867942173443
307.8116501,562.7498479613863
308.1273236,598.4382013955043
308.4441577,638.3407203034277
308.7621594,667.8086384597636
309.0813356,701.1863427811429
309.4016935,749.2165957886534
309.7232403,796.9459465101962
310.04598300000004,846.752081397746
310.369929,888.1705237694204
310.6950856,937.1369803650124
311.0214601,983.3786554009594
311.34906010000003,1039.0930966283547
311.6778931,1085.8616805925317
312.0079665,1130.823669148687
312.33928810000003,1182.3927635572088
312.6718655,1244.9750165487096
313.00570639999995,1304.254532448888
313.3408189,1375.2748234437106
313.6772106,1454.1956125323557
314.0148896,1543.6868310721186
314.3538639,1644.309445541439
314.6941415,1753.2002918934634
315.0357308,1855.098476134063
315.37863980000003,1977.3958751570176
315.7228769,2099.875061473146
316.0684504,2227.3688740566595
316.4153688,2356.710537568025
316.76364069999994,2485.264131316795
317.1132746,2607.604326608631
317.4642791,2742.2118964242336
317.8166631,2872.218325413097
318.1704352,3015.276746500316
318.5256045,3144.740689842873
318.8821799,3288.6550895003943
319.2401704,3433.845803155175
319.5995851,3581.8726146971026
319.96043330000003,3724.042335797146
320.3227243,3871.694861468829
320.6864673,4017.170134426513
321.0516719,4177.664690229805
321.4183476,4331.308112171929
321.786504,4495.035922631767
322.1561508,4668.516283865641
322.5272977,4859.015123967228
322.8999548,5075.805067058847
323.2741319,5303.132288904548
323.649839,5572.108828709102
324.0270864,5869.6156530708495
324.40588419999995,6216.118555739938
324.7862428,6625.415835205937
325.16817260000005,7093.430830047581
325.5516841,7627.164489290989
325.9367879,8280.836627021707
326.32349480000005,9039.496150208552
326.7118154,9939.459963407227
327.1017607,11018.564725951765
327.4933418,12258.821802491117
327.88656960000003,13720.121639541923
328.2814555,15387.772690791106
328.6780106,17263.222824359542
329.0762465,19342.08581892821
329.47617460000004,21580.02263309256
329.8778065,23951.985488936916
330.281154,26388.20300176897
330.6862289,28891.663713451857
331.0930432,31353.794510779862
331.5016088,33772.36881464053
331.911938,36134.33657429066
332.32404310000004,38401.119123788485
332.7379364,40546.91828544552
333.1536305,42615.62679741811
333.571138,44562.820117378666
333.9904716,46465.99410869168
334.4116443,48294.19102370918
334.834669,50091.15352235048
335.2595588,51872.69650706435
335.686327,53631.591071888965
336.114987,55466.52738668287
336.5455522,57329.331008436464
336.9780363,59251.16387523383
337.41245310000005,61294.90757812384
337.8488164,63463.54840258601
338.28714019999995,65823.19530613911
338.7274388,68377.68007355469
339.1697264,71196.97343294999
339.6140175,74221.59939335106
340.06032660000005,77549.3380263321
340.5086685,81057.29935778008
340.959058,84795.32888730514
341.4115102,88650.03283508189
341.8660403,92614.56696358082
342.32266339999995,96673.48778159347
342.7813952,100742.21900069976
343.24225110000003,104853.77700865876
343.70524710000007,108964.6332177029
344.17039889999995,113117.22491318572
344.6377228,117335.62208008546
345.1072349,121589.1432634898
345.5789517,125908.43975106132
346.0528897,130269.05831702614
346.5290657,134620.11504298815
347.0074967,138880.79456097266
347.48819960000003,143047.68441804484
347.9711917,147072.5225058617
348.45649060000005,150935.4194555668
348.9441137,154718.775570181
349.434079,158566.90752327052
349.9264043,162563.5067819224
350.4211078,167047.4649908831
350.9182079,172127.15168046468
351.4177232,178108.70826297675
351.9196722,185104.6380523484
352.42407410000004,193257.924337049
352.9309478,202576.63951089612
353.4403127,212924.17484684405
353.95218839999995,224136.3670932763
354.4665945,235963.4979411756
354.983551,247986.8402777417
355.503078,259949.40340729585
356.025196,271531.2066028646
356.5499253,282444.82717026764
357.077287,292513.0125668329
357.6073018,301592.700367809
358.1399912,309712.52389764565
358.6753765,316873.2259016408
359.2134795,323028.37678127585
359.754322,328301.99533951964
360.2979263,332788.1328146088
360.8443147,336633.8108818741
361.3935098,339820.3303695834
361.9455346,342420.4040473886
362.5004122,344604.5894645609
363.058166,346587.98304466234
363.61881960000005,348510.83380501525
364.1823969,350749.983614693
364.7489221,353524.47901603795
365.3184196,357278.46891943866
365.8909141,362254.7986736636
366.4664305,368775.5094173146
367.0449943,376867.2083051054
367.6266307,386608.2137576571
368.2113658,397862.5202021687
368.7992255,410231.7005654697
369.3902363,423243.0496038347
369.9844249,436360.9937845829
370.5818182,448950.6413893213
371.1824436,460547.7659625148
371.7863286000001,470528.1217561924
372.3935012,478629.2912020129
373.0039896,484725.6052575307
373.6178223,488891.6654584026
374.2350283,491470.52751272783
374.8556368,492711.0711782587
375.4796772,493166.0992726309
376.1071796,493090.0328718507
376.7381741,493323.2953797867
377.3726913,493967.08752560295
378.0107622,495269.66652574646
378.652418,497624.9235821258
379.2976904,500820.25118357904
379.9466115,504931.8223702601
380.5992136,509857.7885295708
381.2555296,515388.44710891217
381.9155926,521503.2556492553
382.5794362,528031.1827050438
383.2470943,534911.6147442905
383.9186014,542140.61405229
384.5939922,549498.7272982574
385.2733019,557208.6111829286
385.9565661,565200.568049675
386.6438209,573633.4298712385
387.3351027,582733.446168129
388.0304484,593218.1203197467
388.7298955,605243.276682545
389.4334817,619183.1644596356
390.1412452,636977.222372222
390.853225,658920.3123779631
391.56946,685622.4098420154
392.2899901,717174.5359024714
393.0148555,753951.6913056169
393.7440968,795008.9132480966
394.4777551,840548.9767175823
395.2158722,890292.8881270345
395.9584903,941044.1383970964
396.7056521,992476.9908326817
397.457401,1044182.7724968544
398.2137806,1095712.690477602
398.9748353,1146910.3459785352
399.7406101,1197844.5581660834
400.5111505,1248606.8799322883
401.2865024,1298957.800247646
402.0667126,1350702.2621662836
402.8518283,1404249.092194158
403.6418973,1459747.2667354974
404.436968,1517665.2412287495
405.2370896,1578790.3835134166
406.0423117,1643173.5781714024
406.8526847,1710741.464942612
407.66825960000006,1781848.498515489
408.4890879,1855435.943540188
409.3152221,1930715.9451118768
410.1467152,2006759.161147658
410.9836208,2081747.5833710127
411.8259934,2154007.529381067
412.673888,2222146.892385484
413.5273605,2284249.673692043
414.38646760000006,2339285.0270378627
415.2512664,2386769.2274527736
416.1218152,2426629.001391687
416.9981727,2459992.756419123
417.8803987,2488816.471041153
418.7685535,2515264.825735952
419.6626985,2543408.5215805382
420.5628957,2575546.4458346167
421.4692081,2614788.297397423
422.3816994,2664336.752573743
423.3004343,2725898.6174048814
424.2254783,2799179.070960476
425.1568978,2884849.4013697924
426.0947602,2980498.397213492
427.0391337,3083637.371564738
427.9900874,3190162.0240305127
428.9476917,3296200.3851711946
429.9120175,3396717.5009956025
430.8831369,3487673.7414419977
431.8611232,3565442.5861148606
432.8460504,3628073.203109515
433.8379937,3674344.154334481
434.8370293,3704938.0897228033
435.8432345,3722534.9323902167
436.8566878,3729532.5922003337
437.8774686,3731631.923606825
438.9056575,3732007.583235549
439.9413364,3735233.88841164
440.9845882,3744861.284858496
442.035497,3764020.100010464
443.0941482,3794376.408438101
444.1606283,3837266.100663672
445.23502520000005,3892214.5947792265
446.317428,3959726.650808937
447.407927,4038815.657509442
448.5066141,4128524.621951392
449.6135822,4228734.195165176
450.7289258,4338392.286882034
451.85274060000006,4457114.1267473465
452.9851239,4585634.389814514
454.1261744,4724423.045488732
455.2759921,4870776.9354264485
456.4346788,5022044.4957318185
457.6023374,5174152.33889434
458.7790727,5324721.443545547
459.9649909,5469540.978174839
461.1601998,5605050.944712048
462.364809,5724984.84647581
463.5789295,5822391.656758552
464.8026741000001,5898729.558108781
466.0361575,5956033.87742542
467.2794956999999,5996508.9634237
468.5328070000001,6022822.803832797
469.7962111000001,6036569.6222280525
471.0698299,6041214.7125287
472.3537868,6041481.941823122
473.6482074,6041595.973881731
474.9532192,6041060.128444334
476.2689517,6041613.701092314
477.5955362,6041432.293761468
478.93310639999993,6041243.322971611
480.2817979,6041755.411584577
481.6417484,6041319.782694796
483.01309800000007,6041238.321805583
484.3959889,6041238.015425722
485.7905654,6041659.159811097
487.1969743,6041539.451866402
488.6153648,6041130.0063579
490.0458884,6040975.245076752
491.488699,6041210.386737377
492.943953,6041530.413367563
494.4118094,6041093.819507305
495.8924299,6041542.102795347
497.3859785,6041022.207894438
498.8926222,6041679.602023214
500.4125306,6041526.5271898685
501.9458762,6041413.908132167
503.4928341,6040995.554819117
505.0535827,6041269.973671013
506.628303,6041592.094768902
508.2171791999999,6041542.286906674
509.8203986,6041428.423867673
511.4381515,6041488.53940814
513.0706316000001,6041330.197255804
514.7180356,6041236.859740705
516.3805639,6041619.31295757
518.0584200000001,6041752.438361386
519.7518110000001,6041661.778486134
521.4609475999999,6042010.775596287
523.186044,6041322.2583070975
524.927318,6040940.266915661
526.6849915,6041491.819914438
528.45929,6041254.749566
530.2504428000001,6041343.005902148
532.0586836,6041333.835640618
533.8842498,6041568.758626106
535.7273833,6041894.757521912
537.5883299,6041366.970813791
539.46734,6041388.072728292
541.3646685,6041157.925740585
543.2805745000001,6041864.095842351
545.2153222000001,6041315.733181784
547.1691801,6041515.8475566525
549.1424218999999,6041188.642600997
551.1353259,6041836.967196807
553.1481756000001,6041502.7469960535
555.1812597,6041374.274593168
557.2348721,6041704.606443368
559.3093121,6041487.4889642885
561.4048845,6041438.739494775
563.5218996,6041407.465136748
565.6606737000001,6041281.73253921
567.8215287,6041648.082142647
570.0047927,6041153.181707116
572.2107997,6041816.378854019
574.4398902,6041547.964200398
576.692411,6041598.388156526
578.9687155,6041378.860294727
581.2691637,6041558.762923892
583.5941226,6041545.994600495
585.943966,6041774.542126891
588.3190752,6041271.000099273
590.7198384999999,6041163.881791959
593.1466518,6041325.532202003
595.5999188999999,6041310.280627672
598.0800512,6040728.6499676015
600.5874682,6041477.6818197165
603.1225977000001,6041335.693138558
605.6858758999999,6041479.579611418
608.2777476,6041565.595939647
610.8986664,6041752.864319608
613.549095,6041007.766510711
616.2295054,6041615.51196935
618.940379,6040862.294658989
621.6822068,6041965.475697712
624.4554901,6040970.851229337
627.2607402000001,6043587.343405907
630.0984786,6041658.702820863
632.9692378999999,6043096.635351798
635.8735614,6040763.832042145
638.8120038,6040479.7420271775
641.7851312999999,6040505.117264642
644.7935217999999,6041333.437290577
647.8377654,6041877.482275714
650.9184646000001,6041861.080968169
654.0362346,6040199.383709429
657.1917038,6040607.350544928
660.3855139,6041874.0535500925
663.6183202999999,6041451.193140212
666.8907926,6041291.771100188
671.949054,6041288.980459927
672.8766895,6041271.116313018
673.8073092,6041228.570076198
674.7409267,6041021.87285016
675.6775557999999,6041509.762488304
676.6172101,6041406.773123708
677.5599033,6041372.668337625
678.5056492000001,6041317.116322317
679.4544612999999,6041289.512202607
680.4063535,6041134.786884902
681.3613392999999,6041533.216924714
682.3194324,6041266.774412323
683.2806465,6041136.6792547135
684.2449952000001,6041656.735559247
685.2124921,6041453.935218197
686.1831509,6041477.807051958
687.1569850999999,6041447.407197123
688.1340083,6040951.0301357685
689.1142341,6041551.977994118
690.097676,6041295.175980351
691.0843474999999,6041496.867909148
692.0742622,6041330.458684293
693.0674334,6041360.913656178
694.0638748,6041843.168072684
695.0635996,6041188.541090461
696.0666212,6041507.856637272
697.0729531000001,6041130.160638803
698.0826086,6041226.637563645
699.0956008999999,6041517.02129734
700.1119432999999,6041433.962947777
701.1316491,6041447.719601933
702.1547314,6041815.003225118
703.1812034,6040981.717873668
704.2110782000001,6040967.6351438975
705.2443688999999,6041738.733177078
706.2810885,6041548.596795866
707.3212499,6041271.804002987
708.3648661000001,6041728.899340636
709.41195,6041584.068917628
710.4625143999999,6041240.915375478
711.5165721,6041437.214353087
712.5741357,6041658.888258887
713.6352181,6041853.817453749
714.6998317000001,6041671.885354993
715.7679891,6041130.504671548
716.8397027999999,6041436.080231153
717.9149852,6041318.773342314
718.9938487000001,6041110.558645267
720.0763055,6041722.756696959
721.162368,6041509.564044408
722.2520481,6041873.071762422
723.3453581,6041526.665576748
724.4423098,6041324.880358534
725.5429153,6041484.095598589
726.6471863,6041026.719533288
727.7551346,6041408.608434394
728.866772,6041784.03417271
729.9821099,6041725.843732835
731.1011599,6041513.788835146
732.2239335,6041210.168393136
733.3504419,6041645.331585477
734.4806963999999,6040885.036336835
735.6147081,6041689.546074187
736.7524882,6041305.1218696935
737.8940474,6041200.265325408
739.0393967,6041800.426085106
740.1885467999999,6041282.587589228
741.3415084,6041523.938211418
742.498292,6041349.3987891525
743.658908,6041682.543470183
744.8233667999999,6041026.177558086
745.9916785,6041609.620689474
747.1638532000001,6041236.894622227
748.3399009,6041267.287163357
749.5198315,6040997.277771267
750.7036546,6041894.717999257
751.89138,6041019.960727064
753.0830171,6041294.731642417
754.2785752999999,6041196.609560045
755.4780638,6040896.320479778
756.6814917,6041697.931365322
757.8888678999999,6041314.892698192
759.1002014999999,6041291.76002809
760.3155009,6041289.917748722
761.5347749,6036780.657062923
762.7580318,6023964.05980649
763.98528,5997712.657800937
765.2165276000001,5955951.308974412
766.4517825,5895347.040713949
767.6910527000001,5813382.031961722
768.9343458999999,5705559.672415217
770.1816697,5569875.59638177
771.4330313999999,5410181.127787641
772.6884382999999,5231843.763107789
773.9478975,5039085.463048446
775.211416,4832980.524139859
776.4790005,4616379.994471286
777.7506578,4391418.445752092
779.0263942,4162201.13336868
780.3062162,3932472.826492075
781.5901297,3704004.682353642
782.8781409,3478031.841765556
784.1702554999999,3257889.636634962
785.4664793,3047456.7490209923
786.7668176,2849790.805837604
788.0712758,2667880.449633716
789.3798591,2503522.8423466543
790.6925722999999,2356380.8811159288
792.0094204,2226130.71682236
793.3304079,2110622.710441304
794.6555392000001,2007214.1856742024
795.9848187000001,1913150.76315576
797.3182504,1825846.586434492
798.6558382999999,1742977.564362195
799.9975861,1663641.2775876955
801.3434973,1585741.904297726
802.6935752999999,1510419.1496726065
804.0478232999999,1437564.072187647
805.4062443,1367628.7720231244
806.7688411,1301695.3845820487
808.1356164,1240120.060906805
809.5065726,1183657.899297768
810.881712,1132334.1536698125
812.2610367000001,1085876.9113334347
813.6445485,1043587.3167137622
815.0322493,1004697.6743276272
816.4241404,968409.006576656
817.8202233,933318.2401410504
819.2204991,899116.5702209264
820.6249687999999,864897.1098753907
822.0336331,830232.955694159
823.4464925999999,794968.3611602952
824.8635477000001,759564.773113662
826.2847987,724118.5188902372
827.7102456,689123.515936417
829.1398882,655092.694732433
830.5737261,622111.7128145909
832.0117589,590517.13129382
833.4539857000001,560695.1867076791
834.9004057999999,532372.5912337779
836.3510179,505560.8878744025
837.8058209,479851.1261874744
839.2648132999999,455164.5877465536
840.7279934000001,431060.8606945975
842.1953594,407389.4142823333
843.6669092,384107.6578465593
845.1426408,361062.00322486064
846.6225517000001,338163.1508206549
848.1066392999999,315524.3289994862
849.5949009999999,293031.8247583148
851.0873337999999,271018.12152723875
852.5839347000001,249467.1316309073
854.0847002999999,228473.33789758905
855.5896273,208273.924826504
857.0987119999999,188741.7572744613
858.6119507000001,170146.76381401625
860.1293393999999,152510.40892807208
861.650874,136164.089540954
863.1765502000001,120960.25721488072
864.7063635,107014.17990464352
866.2403094,94338.80468785512
867.778383,82941.22315808732
869.3205793999999,72875.05904464095
870.8668935000001,63972.42718596479
872.4173199999999,56125.52867552271
873.9718536,49276.025414478776
875.5304886,43293.759152407234
877.0932193,38158.80559640124
878.6600399,33686.803771548395
880.2309443,29739.35129457298
881.8059264000001,26120.05528725268
883.3849798,22804.046260033087
884.9680981,19749.757825731333
886.5552747000002,16862.142316048292
888.1465029,14146.787363960331
889.7417757000001,11569.155556185571
891.3410862,9090.57184702946
892.9444273,6825.763449366958
894.5517916000001,4938.185893382236
896.1631719000001,3421.853088742012
897.7785605,2209.524925941165
899.3979498,1303.306992236457
901.0213321,660.9184241964713
902.6486995,256.61736409407644
904.280044,73.1600683633893
905.9153575,34.8168960149347
907.5546319,13.697765457150387
909.1978586,4.806466342541204
910.8450295,-3.375389010866936
912.4961358,-1.945838213316483
914.1511691,2.143651113792037
915.8101205,-5.588724546315235
917.4729813,-0.0847166052511163
919.1397426,-3.16334733574574
920.8103953,0.4415389257802514
922.4849303,4.762325317972104
924.1633386,0.3367390488550703
925.8456109,-2.954393976771409
927.5317378,1.1213101835771502
929.22171,-1.1784167152442042
930.9155179,-0.1959820145603092
932.6131521,2.623685655736
934.3146028,3.508808964553748
936.0198606,-1.4092467872262948
937.7289155,3.357051064217856
939.4417579,-0.1433549982058296
941.1583779,3.4924909085186995
942.8787656,1.7552833197681612
944.6029109,1.0438529115219704
946.3308041,1.61116527028671
948.0624349,-1.6406580822307812
949.7977933,0.0303627546615611
951.5368692,1.0054468414848572
953.2796523,2.8825024563870287
955.0261327,2.038386217692225
956.7762999,-0.9961022088620024
958.5301437,0.3059147389799099
960.2876539,-0.9832630871108788
962.0488201,-2.0465408019560334
963.813632,-3.145091001415989
965.5820793,-1.6500203217407448
967.3541517,-3.931627784697047
969.1298386,2.105018682888055
970.9091298,1.7033514814049606
972.6920149,-2.722886210281976
974.4784835,-0.4818640940231268
976.2685251,-0.3512474515183997
978.0621293,-4.374340339645181
979.8592859,-0.1795326001418748
981.6599843,1.1326973448076738
983.4642142,-1.3699780389486216
985.2719651,1.4194941617328218
987.0832269,-2.0340671427426784
988.897989,0.5951808195257647
990.7162412,0.8251880571268331
992.5379731,0.5697323218961414
994.3631745,-0.1305353913543167
996.191835,-2.5234487474089846
998.0239445,-1.4046168974828863
999.8594926,-1.721517714247634
1001.698469,0.1940873766338494
1003.540864,-2.4828015120146354
1005.386668,-0.2560380296789093
1007.235869,-1.0135027700346122
1009.088458,-1.3882057339090028
1010.944426,-1.4595044843212577
1012.803762,2.695458672122457
1014.666456,-1.7623914860927488
1016.532498,3.563393467847685
1018.401878,0.1326549887647255
1020.274588,2.036567084308109
1022.150616,-4.73185969603898
1024.029953,-1.7019446622146523
1025.912591,-1.3569396311604591
1027.798518,-1.7565954216705633
1029.687726,-0.98573078831702
1031.580205,0.4841937252135517
1033.475945,0.8186167813122637
1035.3749380000002,2.5893260434548018
1037.277175,1.538102537464364
1039.182645,-2.0127188922791954
1041.09134,2.6250894347966467
1043.003251,0.2137404881779373
1044.918368,-0.0573575810121391
1046.836683,0.7728066703273068
1048.758188,3.079024708981095
1050.682872,1.7863592040068756
1052.610728,-0.9875552316154448
1054.541747,0.8450681541709223
1056.4759210000002,0.5606905164531844
1058.41324,2.214747155831732
1060.353697,-0.1533507103623259
1062.297282,-3.1936625878301363
1064.243989,-6.004355355014276
1066.193809,1.6975392031795646
1068.146734,-1.8391697537208151
