wave,flux
306.2504509,950.8002693555052
306.5604242,1322.253880426556
306.871524,1713.1215924789483
307.18375710000004,2130.907616730587
307.4971302,2582.262923758263
307.8116501,3074.65883554866
308.1273236,3196.4702796861816
308.4441577,3313.0848722010883
308.7621594,3427.6516937653587
309.0813356,3542.5162308011218
309.4016935,3656.877289853516
309.7232403,3775.80843826511
310.04598300000004,3889.758670805915
310.369929,4024.801568645164
310.6950856,4172.331691185085
311.0214601,4339.055047316695
311.34906010000003,4515.768079551142
311.6778931,4715.475472911429
312.0079665,4948.6305343016775
312.33928810000003,5190.175123940146
312.6718655,5463.043666091346
313.00570639999995,5740.249336736076
313.3408189,6046.995677269764
313.6772106,6378.200524430502
314.0148896,6697.50674348576
314.3538639,7041.336257401192
314.6941415,7415.0488077675855
315.0357308,7797.723720328794
315.37863980000003,8205.572142737115
315.7228769,8617.323986067086
316.0684504,9089.187937322637
316.4153688,9558.31799726556
316.76364069999994,10045.029943140276
317.1132746,10594.724393753995
317.4642791,11121.528552133706
317.8166631,11665.240207057292
318.1704352,12201.213631975164
318.5256045,12741.499156079
318.8821799,13273.036883460702
319.2401704,13794.723759252594
319.5995851,14295.231961884414
319.96043330000003,14781.084671698754
320.3227243,15256.077840782344
320.6864673,15719.894084529027
321.0516719,16175.799237446314
321.4183476,16683.326343241515
321.786504,17201.63818738699
322.1561508,17746.583358741478
322.5272977,18345.33733804492
322.8999548,19019.14960887953
323.2741319,19857.249300487827
323.649839,20854.167965202963
324.0270864,21937.98795256532
324.40588419999995,23334.28165512586
324.7862428,25125.65470384828
325.16817260000005,27373.921797848576
325.5516841,30228.444429769283
325.9367879,33745.1495879037
326.32349480000005,38180.37671411837
326.7118154,43655.31193273296
327.1017607,50322.04434114313
327.4933418,58452.73226915859
327.88656960000003,68081.48712338897
328.2814555,79229.58951848822
328.6780106,91980.16180285254
329.0762465,106305.69926158294
329.47617460000004,122125.96763422672
329.8778065,139181.65341653494
330.281154,157212.41526687887
330.6862289,175913.42096702178
331.0930432,194914.05098961413
331.5016088,213862.88056763395
331.911938,232237.31714968727
332.32404310000004,249819.2555806116
332.7379364,266270.9225800215
333.1536305,281279.8061360518
333.571138,294850.57377868955
333.9904716,306748.4653860758
334.4116443,316844.4018236785
334.834669,325274.78235354205
335.2595588,331601.8461558296
335.686327,336003.8879227173
336.114987,338349.7227979028
336.5455522,338729.828771746
336.9780363,336697.4989362585
337.41245310000005,332690.19068779354
337.8488164,326693.08583890763
338.28714019999995,319031.23680765217
338.7274388,310102.0979640146
339.1697264,300423.330791137
339.6140175,290527.63399304467
340.06032660000005,281075.31637006486
340.5086685,272646.38783494954
340.959058,265715.05067807325
341.4115102,260637.1533711921
341.8660403,257607.6875898398
342.32266339999995,256581.2537915033
342.7813952,257402.599385065
343.24225110000003,259654.5434101421
343.70524710000007,263096.21600641217
344.17039889999995,267338.2975355918
344.6377228,271889.80610948475
345.1072349,276707.7250610561
345.5789517,281621.1813033846
346.0528897,286946.60211005143
346.5290657,292853.453440022
347.0074967,299851.9352380941
347.48819960000003,308385.97896691697
347.9711917,318895.26130413427
348.45649060000005,331884.49407950643
348.9441137,347349.52579510014
349.434079,365499.7887665709
349.9264043,385991.55484040367
350.4211078,408359.4237283043
350.9182079,431925.57825271296
351.4177232,455997.0051037344
351.9196722,479893.2152613528
352.42407410000004,502937.9073138014
352.9309478,524786.4795442215
353.4403127,545261.153639943
353.95218839999995,564370.0550866316
354.4665945,582439.3851057704
354.983551,600008.7157622994
355.503078,617579.9844432552
356.025196,635814.0711927994
356.5499253,655138.9013254453
357.077287,675762.559457203
357.6073018,697580.7542457592
358.1399912,720134.6732402686
358.6753765,743023.85815217
359.2134795,765102.338744687
359.754322,785774.6444604191
360.2979263,804054.1174005606
360.8443147,819310.1424483635
361.3935098,830823.0469490683
361.9455346,838543.6122505084
362.5004122,842632.249905009
363.058166,843460.6193486537
363.61881960000005,841642.381836935
364.1823969,837990.2675653476
364.7489221,833751.118277817
365.3184196,829356.1050069459
365.8909141,826371.625080219
366.4664305,825172.8981922581
367.0449943,827103.6400421496
367.6266307,832841.5964196598
368.2113658,842879.0052682017
368.7992255,857602.8365162981
369.3902363,877409.0940422324
369.9844249,902151.7067571464
370.5818182,931484.597566266
371.1824436,964833.666013408
371.7863286000001,1001040.9832052252
372.3935012,1039554.7592174988
373.0039896,1078987.8390792084
373.6178223,1118477.3054887562
374.2350283,1156940.3689022826
374.8556368,1194073.4899948726
375.4796772,1229663.6999388018
376.1071796,1264238.2519429305
376.7381741,1298509.7931764566
377.3726913,1333437.0997894066
378.0107622,1370147.9927877376
378.652418,1409678.5707945123
379.2976904,1453415.0578732118
379.9466115,1500912.955917955
380.5992136,1553174.4060960326
381.2555296,1609277.2982704646
381.9155926,1669209.5470381426
382.5794362,1731299.9229533323
383.2470943,1795088.397840354
383.9186014,1858710.0754629665
384.5939922,1921135.5105155848
385.2733019,1980884.68994338
385.9565661,2036139.842830544
386.6438209,2085167.011111356
387.3351027,2126740.357202849
388.0304484,2159213.726110613
388.7298955,2180658.4612774854
389.4334817,2190487.574693898
390.1412452,2189016.262248976
390.853225,2176142.870109586
391.56946,2152188.2750603408
392.2899901,2119016.1763379565
393.0148555,2078074.56079422
393.7440968,2032293.349908781
394.4777551,1983962.3024682824
395.2158722,1937460.5089467687
395.9584903,1892832.7636981243
396.7056521,1853571.019395449
397.457401,1822498.8695709773
398.2137806,1803081.2518711889
398.9748353,1796225.9735985375
399.7406101,1804468.5788972687
400.5111505,1828617.2415587709
401.2865024,1869406.726516262
402.0667126,1928530.134580223
402.8518283,2006212.574542029
403.6418973,2101777.045216784
404.436968,2214836.9268231867
405.2370896,2344539.519436979
406.0423117,2489313.0304621696
406.8526847,2647475.965254379
407.66825960000006,2815708.256394074
408.4890879,2990922.9012428364
409.3152221,3168577.4336407795
410.1467152,3344137.9661413766
410.9836208,3511359.015489395
411.8259934,3665516.031363455
412.673888,3802184.241173221
413.5273605,3915992.462956552
414.38646760000006,4004209.7901925375
415.2512664,4064790.081893837
416.1218152,4097251.064877328
416.9981727,4104305.7968290513
417.8803987,4089768.890988669
418.7685535,4057691.773970395
419.6626985,4015378.470067324
420.5628957,3969778.774510061
421.4692081,3928270.694566578
422.3816994,3898350.687478538
423.3004343,3886684.983758007
424.2254783,3898337.552360504
425.1568978,3936978.210794586
426.0947602,4003440.354330509
427.0391337,4098217.788288913
427.9900874,4218044.324669757
428.9476917,4358594.06363389
429.9120175,4513164.2911695605
430.8831369,4674574.59699953
431.8611232,4835237.69729374
432.8460504,4987760.51593772
433.8379937,5126327.305982345
434.8370293,5246142.417378721
435.8432345,5345754.389823557
436.8566878,5424246.7707528
437.8774686,5485108.056173427
438.9056575,5529601.296607905
439.9413364,5561526.662392453
440.9845882,5583919.822440331
442.035497,5599655.323561153
443.0941482,5608596.291947474
444.1606283,5613120.329761987
445.23502520000005,5611386.74779825
446.317428,5605607.510606874
447.407927,5595378.794117983
448.5066141,5583268.305023545
449.6135822,5573173.194668294
450.7289258,5569255.447520112
451.85274060000006,5575090.582263587
452.9851239,5592202.094864098
454.1261744,5621519.807390049
455.2759921,5663290.5087412335
456.4346788,5715149.911114412
457.6023374,5774559.6070292
458.7790727,5835704.649592175
459.9649909,5890524.914617387
461.1601998,5937964.416659517
462.364809,5976045.369556188
463.5789295,6004894.48609105
464.8026741000001,6024194.003709868
466.0361575,6035750.9301013565
467.2794956999999,6040817.29919877
468.5328070000001,6041429.641817385
469.7962111000001,6041584.802506671
471.0698299,6041473.536795371
472.3537868,6041251.299909374
473.6482074,6041500.887863989
474.9532192,6041605.86962116
476.2689517,6041497.144889792
477.5955362,6041198.80039125
478.93310639999993,6041708.348913928
480.2817979,6041536.028215282
481.6417484,6041685.931278046
483.01309800000007,6041393.750149006
484.3959889,6041886.0085813375
485.7905654,6041037.306184453
487.1969743,6041123.438872834
488.6153648,6041574.278232906
490.0458884,6041234.882737016
491.488699,6041264.004630353
492.943953,6041688.5796063375
494.4118094,6041725.916014591
495.8924299,6041717.459769422
497.3859785,6041451.537399762
498.8926222,6041203.711789346
500.4125306,6041517.673762193
501.9458762,6041466.037557462
503.4928341,6040877.273805265
505.0535827,6041127.245171179
506.628303,6041318.321770264
508.2171791999999,6041632.921492432
509.8203986,6041427.800465219
511.4381515,6040764.769877148
513.0706316000001,6041336.506622661
514.7180356,6041218.59165561
516.3805639,6041168.209012068
518.0584200000001,6041505.298766918
519.7518110000001,6041123.943107583
521.4609475999999,6041549.028302248
523.186044,6041381.355952568
524.927318,6041513.614093708
526.6849915,6041176.899155382
528.45929,6041274.173293795
530.2504428000001,6041259.012375223
532.0586836,6041667.4092788175
533.8842498,6041479.761954069
535.7273833,6041015.529624567
537.5883299,6041822.4288904965
539.46734,6041277.2885184325
541.3646685,6041339.771333359
543.2805745000001,6041041.652916066
545.2153222000001,6041423.393059112
547.1691801,6041070.539982534
549.1424218999999,6041377.330659378
551.1353259,6041546.660895308
553.1481756000001,6041389.1915188525
555.1812597,6041115.758585399
557.2348721,6041181.738928313
559.3093121,6041130.423452592
561.4048845,6040972.357676618
563.5218996,6040884.777152501
565.6606737000001,6041525.030132773
567.8215287,6041812.971056798
570.0047927,6041282.482965577
572.2107997,6041694.2805349175
574.4398902,6040934.443838101
576.692411,6041256.543051872
578.9687155,6041361.678060588
581.2691637,6040991.9676597
583.5941226,6041458.801198519
585.943966,6041400.188168901
588.3190752,6041412.351385823
590.7198384999999,6041313.546810946
593.1466518,6041054.236643754
595.5999188999999,6041592.9362672735
598.0800512,6041113.669486644
600.5874682,6041188.995035533
603.1225977000001,6041602.30435576
605.6858758999999,6041315.156169999
608.2777476,6041447.217509155
610.8986664,6041616.448437842
613.549095,6041117.840589223
616.2295054,6041427.816162257
618.940379,6040895.660468201
621.6822068,6040946.566031068
624.4554901,6043469.713555497
627.2607402000001,6041575.4172430085
630.0984786,6042034.978246511
632.9692378999999,6040962.476383385
635.8735614,6041312.454917389
638.8120038,6041568.179233379
641.7851312999999,6040525.527304487
644.7935217999999,6041242.990428362
647.8377654,6042257.675254418
650.9184646000001,6040735.620805379
654.0362346,6044666.991198564
657.1917038,6038525.732424783
660.3855139,6041319.261944181
663.6183202999999,6044284.818759128
666.8907926,6040044.122003637
669.1839152000001,6041878.621230503
670.1026805,6041536.203329182
670.2036149,6041870.833588615
671.0243889,6041817.049782247
671.949054,6041288.980459927
672.8766895,6041271.116313018
673.8073092,6041228.570076198
674.7409267,6041021.87285016
675.6775557999999,6041509.762488304
676.6172101,6041406.773123708
677.5599033,6041372.668337625
678.5056492000001,6041317.116322317
679.4544612999999,6041289.512202607
680.4063535,6041134.786884902
681.3613392999999,6041533.216924714
682.3194324,6041266.774412323
683.2806465,6041136.6792547135
684.2449952000001,6041656.735559247
685.2124921,6041453.935218197
686.1831509,6041477.807051958
687.1569850999999,6041447.407197123
688.1340083,6040951.0301357685
689.1142341,6041551.977994118
690.097676,6041295.175980351
691.0843474999999,6041496.867909148
692.0742622,6041330.458684293
693.0674334,6041360.913656178
694.0638748,6041843.168072684
695.0635996,6041188.541090461
696.0666212,6041507.856637272
697.0729531000001,6041130.160638803
698.0826086,6041226.637563645
699.0956008999999,6041517.02129734
700.1119432999999,6041433.962947777
701.1316491,6041447.719601933
702.1547314,6041815.003225118
703.1812034,6040981.717873668
704.2110782000001,6040967.6351438975
705.2443688999999,6041738.733177078
706.2810885,6041548.596795866
707.3212499,6041271.804002987
708.3648661000001,6041728.899340636
709.41195,6041584.068917628
710.4625143999999,6041240.915375478
711.5165721,6041437.214353087
712.5741357,6041658.888258887
713.6352181,6041853.817453749
714.6998317000001,6041671.885354993
715.7679891,6041130.504671548
716.8397027999999,6041436.080231153
717.9149852,6041318.773342314
718.9938487000001,6041110.558645267
720.0763055,6041722.756696959
721.162368,6041509.564044408
722.2520481,6041873.071762422
723.3453581,6041526.665576748
724.4423098,6041324.880358534
725.5429153,6041484.095598589
726.6471863,6041026.719533288
727.7551346,6041408.608434394
728.866772,6041784.03417271
729.9821099,6041725.843732835
731.1011599,6041513.788835146
732.2239335,6041210.168393136
733.3504419,6041645.331585477
734.4806963999999,6040885.036336835
735.6147081,6041689.546074187
736.7524882,6041305.1218696935
737.8940474,6041200.265325408
739.0393967,6041800.426085106
740.1885467999999,6041282.587589228
741.3415084,6041523.938211418
742.498292,6041349.3987891525
743.658908,6041682.543470183
744.8233667999999,6041026.177558086
745.9916785,6041609.620689474
747.1638532000001,6041236.894622227
748.3399009,6041267.287163357
749.5198315,6040997.277771267
750.7036546,6041894.717999257
751.89138,6041019.960727064
753.0830171,6041294.731642417
754.2785752999999,6041196.609560045
755.4780638,6040896.320479778
756.6814917,6041697.931365322
757.8888678999999,6041314.892698192
759.1002014999999,6041291.76002809
760.3155009,6041289.917748722
761.5347749,6036780.657062923
762.7580318,6023964.05980649
763.98528,5997712.657800937
765.2165276000001,5955951.308974412
766.4517825,5895347.040713949
767.6910527000001,5813382.031961722
768.9343458999999,5705559.672415217
770.1816697,5569875.59638177
771.4330313999999,5410181.127787641
772.6884382999999,5231843.763107789
773.9478975,5039085.463048446
775.211416,4832980.524139859
776.4790005,4616379.994471286
777.7506578,4391418.445752092
779.0263942,4162201.13336868
780.3062162,3932472.826492075
781.5901297,3704004.682353642
782.8781409,3478031.841765556
784.1702554999999,3257889.636634962
785.4664793,3047456.7490209923
786.7668176,2849790.805837604
788.0712758,2667880.449633716
789.3798591,2503522.8423466543
790.6925722999999,2356380.8811159288
792.0094204,2226130.71682236
793.3304079,2110622.710441304
794.6555392000001,2007214.1856742024
795.9848187000001,1913150.76315576
797.3182504,1825846.586434492
798.6558382999999,1742977.564362195
799.9975861,1663641.2775876955
801.3434973,1585741.904297726
802.6935752999999,1510419.1496726065
804.0478232999999,1437564.072187647
805.4062443,1367628.7720231244
806.7688411,1301695.3845820487
808.1356164,1240120.060906805
809.5065726,1183657.899297768
810.881712,1132334.1536698125
812.2610367000001,1085876.9113334347
813.6445485,1043587.3167137622
815.0322493,1004697.6743276272
816.4241404,968409.006576656
817.8202233,933318.2401410504
819.2204991,899116.5702209264
820.6249687999999,864897.1098753907
822.0336331,830232.955694159
823.4464925999999,794968.3611602952
824.8635477000001,759564.773113662
826.2847987,724118.5188902372
827.7102456,689123.515936417
829.1398882,655092.694732433
830.5737261,622111.7128145909
832.0117589,590517.13129382
833.4539857000001,560695.1867076791
834.9004057999999,532372.5912337779
836.3510179,505560.8878744025
837.8058209,479851.1261874744
839.2648132999999,455164.5877465536
840.7279934000001,431060.8606945975
842.1953594,407389.4142823333
843.6669092,384107.6578465593
845.1426408,361062.00322486064
846.6225517000001,338163.1508206549
848.1066392999999,315524.3289994862
849.5949009999999,293031.8247583148
851.0873337999999,271018.12152723875
852.5839347000001,249467.1316309073
854.0847002999999,228473.33789758905
855.5896273,208273.924826504
857.0987119999999,188741.7572744613
858.6119507000001,170146.76381401625
860.1293393999999,152510.40892807208
861.650874,136164.089540954
863.1765502000001,120960.25721488072
864.7063635,107014.17990464352
866.2403094,94338.80468785512
867.778383,82941.22315808732
869.3205793999999,72875.05904464095
870.8668935000001,63972.42718596479
872.4173199999999,56125.52867552271
873.9718536,49276.025414478776
875.5304886,43293.759152407234
877.0932193,38158.80559640124
878.6600399,33686.803771548395
880.2309443,29739.35129457298
881.8059264000001,26120.05528725268
883.3849798,22804.046260033087
884.9680981,19749.757825731333
886.5552747000002,16862.142316048292
888.1465029,14146.787363960331
889.7417757000001,11569.155556185571
891.3410862,9090.57184702946
892.9444273,6825.763449366958
894.5517916000001,4938.185893382236
896.1631719000001,3421.853088742012
897.7785605,2209.524925941165
899.3979498,1303.306992236457
901.0213321,660.9184241964713
902.6486995,256.61736409407644
904.280044,73.1600683633893
905.9153575,34.8168960149347
907.5546319,13.697765457150387
909.1978586,4.806466342541204
910.8450295,-3.375389010866936
912.4961358,-1.945838213316483
914.1511691,2.143651113792037
915.8101205,-5.588724546315235
917.4729813,-0.0847166052511163
919.1397426,-3.16334733574574
920.8103953,0.4415389257802514
922.4849303,4.762325317972104
924.1633386,0.3367390488550703
925.8456109,-2.954393976771409
927.5317378,1.1213101835771502
929.22171,-1.1784167152442042
930.9155179,-0.1959820145603092
932.6131521,2.623685655736
934.3146028,3.508808964553748
936.0198606,-1.4092467872262948
937.7289155,3.357051064217856
939.4417579,-0.1433549982058296
941.1583779,3.4924909085186995
942.8787656,1.7552833197681612
944.6029109,1.0438529115219704
946.3308041,1.61116527028671
948.0624349,-1.6406580822307812
949.7977933,0.0303627546615611
951.5368692,1.0054468414848572
953.2796523,2.8825024563870287
955.0261327,2.038386217692225
956.7762999,-0.9961022088620024
958.5301437,0.3059147389799099
960.2876539,-0.9832630871108788
962.0488201,-2.0465408019560334
963.813632,-3.145091001415989
965.5820793,-1.6500203217407448
967.3541517,-3.931627784697047
969.1298386,2.105018682888055
970.9091298,1.7033514814049606
972.6920149,-2.722886210281976
974.4784835,-0.4818640940231268
976.2685251,-0.3512474515183997
978.0621293,-4.374340339645181
979.8592859,-0.1795326001418748
981.6599843,1.1326973448076738
983.4642142,-1.3699780389486216
985.2719651,1.4194941617328218
987.0832269,-2.0340671427426784
988.897989,0.5951808195257647
990.7162412,0.8251880571268331
992.5379731,0.5697323218961414
994.3631745,-0.1305353913543167
996.191835,-2.5234487474089846
998.0239445,-1.4046168974828863
999.8594926,-1.721517714247634
1001.698469,0.1940873766338494
1003.540864,-2.4828015120146354
1005.386668,-0.2560380296789093
1007.235869,-1.0135027700346122
1009.088458,-1.3882057339090028
1010.944426,-1.4595044843212577
1012.803762,2.695458672122457
1014.666456,-1.7623914860927488
1016.532498,3.563393467847685
1018.401878,0.1326549887647255
1020.274588,2.036567084308109
1022.150616,-4.73185969603898
1024.029953,-1.7019446622146523
1025.912591,-1.3569396311604591
1027.798518,-1.7565954216705633
1029.687726,-0.98573078831702
1031.580205,0.4841937252135517
1033.475945,0.8186167813122637
1035.3749380000002,2.5893260434548018
1037.277175,1.538102537464364
1039.182645,-2.0127188922791954
1041.09134,2.6250894347966467
1043.003251,0.2137404881779373
1044.918368,-0.0573575810121391
1046.836683,0.7728066703273068
1048.758188,3.079024708981095
1050.682872,1.7863592040068756
1052.610728,-0.9875552316154448
1054.541747,0.8450681541709223
1056.4759210000002,0.5606905164531844
1058.41324,2.214747155831732
1060.353697,-0.1533507103623259
