wave,flux
306.2504509,790.8652157198187
306.5604242,1106.770661680089
306.871524,1461.81975661046
307.18375710000004,1848.0620838480563
307.4971302,2268.660377019095
307.8116501,2738.168015323216
308.1273236,2878.812216460219
308.4441577,3041.870809036019
308.7621594,3207.9478223623128
309.0813356,3394.381882642924
309.4016935,3597.577045194648
309.7232403,3821.536904976044
310.04598300000004,4093.8475343166906
310.369929,4384.973331818255
310.6950856,4694.928303683975
311.0214601,5052.467369199571
311.34906010000003,5433.656559709381
311.6778931,5832.628602653963
312.0079665,6252.278421906901
312.33928810000003,6676.561217552527
312.6718655,7112.584089021967
313.00570639999995,7557.894478847443
313.3408189,8007.392885172328
313.6772106,8467.23585935519
314.0148896,8919.977993465816
314.3538639,9374.292580072848
314.6941415,9857.113268654795
315.0357308,10346.82076432673
315.37863980000003,10857.81964472063
315.7228769,11371.333798824917
316.0684504,11917.360178267834
316.4153688,12489.20237380156
316.76364069999994,13080.911698294569
317.1132746,13700.236783254302
317.4642791,14383.163393720177
317.8166631,15056.364878462187
318.1704352,15804.76500030557
318.5256045,16561.21868931702
318.8821799,17347.184420769197
319.2401704,18180.44790854256
319.5995851,19025.84826630996
319.96043330000003,19894.744020679675
320.3227243,20776.483462871864
320.6864673,21703.234844973165
321.0516719,22628.023953995016
321.4183476,23616.078000016747
321.786504,24632.96608386344
322.1561508,25624.2978868755
322.5272977,26662.981347118824
322.8999548,27819.416963830507
323.2741319,29000.788308796156
323.649839,30243.96569518793
324.0270864,31741.560110665127
324.40588419999995,33347.32304652974
324.7862428,35178.16939173133
325.16817260000005,37427.17426123792
325.5516841,40071.4718171125
325.9367879,43166.01159783098
326.32349480000005,46798.495162103245
326.7118154,51209.69399253752
327.1017607,56231.34462231056
327.4933418,61996.172911106485
327.88656960000003,68353.39865561304
328.2814555,75326.74577452305
328.6780106,82761.22385236582
329.0762465,90596.61843320107
329.47617460000004,98481.79498007469
329.8778065,106367.38732922263
330.281154,114017.82914147586
330.6862289,121353.976858194
331.0930432,128401.41795134608
331.5016088,135031.38820257966
331.911938,141518.7604417885
332.32404310000004,148092.39917381745
332.7379364,155160.29087517245
333.1536305,162951.3413400902
333.571138,171892.36842871705
333.9904716,182625.0727182369
334.4116443,195244.8240398848
334.834669,210136.02531288765
335.2595588,227360.4876278689
335.686327,246832.1978069503
336.114987,268488.80677715153
336.5455522,291877.9635392881
336.9780363,316438.6112894381
337.41245310000005,341622.5246103736
337.8488164,366718.3843915824
338.28714019999995,390944.9712920273
338.7274388,413906.9956798831
339.1697264,434676.338122484
339.6140175,453163.3664302516
340.06032660000005,469118.8908810367
340.5086685,482597.2179415909
340.959058,493811.436408084
341.4115102,503187.4817980029
341.8660403,511472.5398432275
342.32266339999995,519313.9344569389
342.7813952,527733.2320245834
343.24225110000003,537640.0620192576
343.70524710000007,549722.6549656064
344.17039889999995,565078.776019279
344.6377228,584205.5502708486
345.1072349,607954.6764882696
345.5789517,636568.2524752319
346.0528897,670548.8968481524
346.5290657,709636.3515592451
347.0074967,753644.2656027381
347.48819960000003,802199.042687988
347.9711917,854302.8244121717
348.45649060000005,908897.7539103844
348.9441137,964796.4815435612
349.434079,1020246.3702881044
349.9264043,1074385.599179819
350.4211078,1125287.7416923852
350.9182079,1172186.7522769452
351.4177232,1214383.3845041974
351.9196722,1251102.0079399948
352.42407410000004,1282565.4208927522
352.9309478,1308644.9749934883
353.4403127,1330914.6594483706
353.95218839999995,1349504.7062300749
354.4665945,1366102.2720891305
354.983551,1381826.9655258458
355.503078,1397795.1941840537
356.025196,1414997.17676254
356.5499253,1434248.441738219
357.077287,1455690.604337496
357.6073018,1479834.3562492582
358.1399912,1506385.39150252
358.6753765,1534722.4288573326
359.2134795,1564277.2599085562
359.754322,1594164.0949988156
360.2979263,1623056.0527275458
360.8443147,1650181.4633080815
361.3935098,1674609.856873886
361.9455346,1695444.139349109
362.5004122,1711945.5082240466
363.058166,1723520.727165704
363.61881960000005,1730105.1367078526
364.1823969,1731714.4353862326
364.7489221,1729157.229898251
365.3184196,1722731.2766748837
365.8909141,1713592.3633999506
366.4664305,1702915.857336469
367.0449943,1691469.8617091111
367.6266307,1680978.1871564577
368.2113658,1672069.719179909
368.7992255,1665491.7085830828
369.3902363,1662492.455322767
369.9844249,1662553.0335325268
370.5818182,1665916.9543491618
371.1824436,1672064.6437549216
371.7863286000001,1681014.7805853242
372.3935012,1691218.9633436284
373.0039896,1701927.2315782132
373.6178223,1712713.61401002
374.2350283,1722306.595314283
374.8556368,1730986.1935976609
375.4796772,1737932.7321825416
376.1071796,1743292.1000467937
376.7381741,1747425.553201554
377.3726913,1750556.5883325832
378.0107622,1753398.1062645484
378.652418,1756734.0760267144
379.2976904,1761489.182667781
379.9466115,1767556.050835371
380.5992136,1776735.3213806504
381.2555296,1789307.0577204153
381.9155926,1806167.284302881
382.5794362,1827952.1589628232
383.2470943,1855867.797109636
383.9186014,1890211.8749062484
384.5939922,1930807.075574161
385.2733019,1979016.543598721
385.9565661,2033761.2903620985
386.6438209,2094347.475271638
387.3351027,2160579.236482491
388.0304484,2230819.478981816
388.7298955,2303935.8368639327
389.4334817,2378772.705442918
390.1412452,2454772.6212131404
390.853225,2532051.758950733
391.56946,2610371.6421240573
392.2899901,2691453.5943996115
393.0148555,2775898.4993952173
393.7440968,2866299.654753448
394.4777551,2964890.16834705
395.2158722,3073500.609222621
395.9584903,3192864.507941402
396.7056521,3324628.036332178
397.457401,3467830.7812322807
398.2137806,3621862.44672756
398.9748353,3784272.185914249
399.7406101,3951879.116180932
400.5111505,4120869.472737737
401.2865024,4287775.2640371295
402.0667126,4448931.889233778
402.8518283,4601464.422381969
403.6418973,4742551.617028009
404.436968,4871503.745557349
405.2370896,4987453.912418522
406.0423117,5091807.545877132
406.8526847,5186339.352737033
407.66825960000006,5273364.395208431
408.4890879,5354642.608711264
409.3152221,5434191.535004288
410.1467152,5511075.971820045
410.9836208,5586981.494262824
411.8259934,5660278.555079984
412.673888,5730836.396180526
413.5273605,5797270.8128121365
414.38646760000006,5858427.568296973
415.2512664,5910898.674148029
416.1218152,5952702.981537172
416.9981727,5984439.226948527
417.8803987,6008435.69528181
418.7685535,6024602.084374568
419.6626985,6034212.03053546
420.5628957,6039657.75799616
421.4692081,6041180.022596798
422.3816994,6041483.897360446
423.3004343,6041603.809698006
424.2254783,6041649.739758029
425.1568978,6041462.13251404
426.0947602,6041591.091406574
427.0391337,6041653.881583466
427.9900874,6041384.543342647
428.9476917,6041803.514900157
429.9120175,6041222.487002889
430.8831369,6041183.763554515
431.8611232,6041604.848503715
432.8460504,6041455.830126992
433.8379937,6041683.107374313
434.8370293,6041489.890384031
435.8432345,6041364.335966121
436.8566878,6041358.6595400525
437.8774686,6041354.565681024
438.9056575,6041603.723940393
439.9413364,6041475.551436403
440.9845882,6041291.080230893
442.035497,6041434.334113068
443.0941482,6041594.93598907
444.1606283,6041424.879633818
445.23502520000005,6041660.919463012
446.317428,6041137.642781529
447.407927,6041583.733762505
448.5066141,6041494.136523079
449.6135822,6041016.301524181
450.7289258,6041458.64894395
451.85274060000006,6041676.125831507
452.9851239,6041426.743287172
454.1261744,6041006.648824853
455.2759921,6041589.642020327
456.4346788,6040886.465847013
457.6023374,6041114.665842401
458.7790727,6041433.333563043
459.9649909,6041277.232534667
461.1601998,6041687.307250904
462.364809,6041509.1730256025
463.5789295,6041013.088006242
464.8026741000001,6041240.395959924
466.0361575,6041531.970651411
467.2794956999999,6041367.790219102
468.5328070000001,6041584.36401444
469.7962111000001,6041376.234302367
471.0698299,6041606.034686011
472.3537868,6041609.092401569
473.6482074,6041165.619573062
474.9532192,6041246.471979809
476.2689517,6041701.24478197
477.5955362,6041381.405255731
478.93310639999993,6041599.418281495
480.2817979,6041394.842420447
481.6417484,6040842.393225901
483.01309800000007,6041691.446698359
484.3959889,6041538.394848486
485.7905654,6041253.781915851
487.1969743,6041583.42048394
488.6153648,6041347.142209322
490.0458884,6041767.470750417
491.488699,6041032.4442302985
492.943953,6041542.3946980005
494.4118094,6041324.741523652
495.8924299,6041539.050929853
497.3859785,6041514.03330062
498.8926222,6041225.344629642
500.4125306,6041358.199595509
501.9458762,6041033.246043035
503.4928341,6041080.73439911
505.0535827,6041187.2247330565
506.628303,6041439.312761216
508.2171791999999,6041461.700356095
509.8203986,6041736.557871939
511.4381515,6041686.04619743
513.0706316000001,6041633.582462836
514.7180356,6041613.879037293
516.3805639,6041380.136936598
518.0584200000001,6041853.536400478
519.7518110000001,6041789.878981844
521.4609475999999,6041028.478902972
523.186044,6041597.366794623
524.927318,6041304.939432737
526.6849915,6041385.680014725
528.45929,6041515.270337093
530.2504428000001,6041105.037985353
532.0586836,6041582.1597131165
533.8842498,6041290.666176795
535.7273833,6041336.039262681
537.5883299,6041522.93383701
539.46734,6041416.813250403
541.3646685,6041096.850417918
543.2805745000001,6041580.693853016
545.2153222000001,6041197.310639277
547.1691801,6041942.335032939
549.1424218999999,6041579.837524806
551.1353259,6041073.948944068
553.1481756000001,6040904.066213639
555.1812597,6041412.813328117
557.2348721,6041277.125392714
559.3093121,6041312.9537163535
561.4048845,6041223.491401888
563.5218996,6041290.679469656
565.6606737000001,6041174.225920692
567.8215287,6041594.637889845
570.0047927,6041624.674557563
572.2107997,6041078.664544291
574.4398902,6041432.7953651175
576.692411,6041493.569972677
578.9687155,6041254.3966957135
581.2691637,6041385.266384541
583.5941226,6041575.587630865
585.943966,6041357.443220908
588.3190752,6041994.739530982
590.7198384999999,6041867.053247741
593.1466518,6041282.701239407
595.5999188999999,6041046.347801314
598.0800512,6041274.220483631
600.5874682,6040983.774984295
603.1225977000001,6041520.64020235
605.6858758999999,6041388.093595415
608.2777476,6041053.347772099
610.8986664,6041437.79035819
613.549095,6041474.278882408
616.2295054,6041709.729301115
618.940379,6042279.837631388
621.6822068,6041713.9789360175
624.4554901,6043329.654471207
627.2607402000001,6040497.791510338
630.0984786,6042232.331531634
632.9692378999999,6043225.496920733
635.8735614,6042505.734742789
638.8120038,6040747.79229792
641.7851312999999,6042088.343412568
644.7935217999999,6041272.586736896
647.8377654,6041771.111709779
650.5455028,6041684.580826319
650.9184646000001,6041690.881747299
651.4056144,6041370.302348843
652.2683836,6041758.53502382
653.1338237000001,6041033.48180772
654.0019482999999,6041398.277759437
654.8727708,6041174.869245926
655.7463047,6041098.4605098935
656.6225636,6041247.998199501
657.501561,6041213.102491157
658.3833105,6041675.173506688
659.2678255,6041354.862794315
660.1551197000001,6041644.441429223
661.0452068,6041939.220913758
661.9381002,6041391.46357243
662.8338137000001,6041566.783747729
663.7323607999999,6041506.331844827
664.6337553,6041395.154352518
665.5380107000001,6041174.928814688
666.4451407,6041789.567108886
667.355159,6041768.990847449
668.2680793,6041025.600701578
669.1839152000001,6041878.621230503
670.1026805,6041536.203329182
671.0243889,6041817.049782247
671.949054,6041288.980459927
672.8766895,6041271.116313018
673.8073092,6041228.570076198
674.7409267,6041021.87285016
675.6775557999999,6041509.762488304
676.6172101,6041406.773123708
677.5599033,6041372.668337625
678.5056492000001,6041317.116322317
679.4544612999999,6041289.512202607
680.4063535,6041134.786884902
681.3613392999999,6041533.216924714
682.3194324,6041266.774412323
683.2806465,6041136.6792547135
684.2449952000001,6041656.735559247
685.2124921,6041453.935218197
686.1831509,6041477.807051958
687.1569850999999,6041447.407197123
688.1340083,6040951.0301357685
689.1142341,6041551.977994118
690.097676,6041295.175980351
691.0843474999999,6041496.867909148
692.0742622,6041330.458684293
693.0674334,6041360.913656178
694.0638748,6041843.168072684
695.0635996,6041188.541090461
696.0666212,6041507.856637272
697.0729531000001,6041130.160638803
698.0826086,6041226.637563645
699.0956008999999,6041517.02129734
700.1119432999999,6041433.962947777
701.1316491,6041447.719601933
702.1547314,6041815.003225118
703.1812034,6040981.717873668
704.2110782000001,6040967.6351438975
705.2443688999999,6041738.733177078
706.2810885,6041548.596795866
707.3212499,6041271.804002987
708.3648661000001,6041728.899340636
709.41195,6041584.068917628
710.4625143999999,6041240.915375478
711.5165721,6041437.214353087
712.5741357,6041658.888258887
713.6352181,6041853.817453749
714.6998317000001,6041671.885354993
715.7679891,6041130.504671548
716.8397027999999,6041436.080231153
717.9149852,6041318.773342314
718.9938487000001,6041110.558645267
720.0763055,6041722.756696959
721.162368,6041509.564044408
722.2520481,6041873.071762422
723.3453581,6041526.665576748
724.4423098,6041324.880358534
725.5429153,6041484.095598589
726.6471863,6041026.719533288
727.7551346,6041408.608434394
728.866772,6041784.03417271
729.9821099,6041725.843732835
731.1011599,6041513.788835146
732.2239335,6041210.168393136
733.3504419,6041645.331585477
734.4806963999999,6040885.036336835
735.6147081,6041689.546074187
736.7524882,6041305.1218696935
737.8940474,6041200.265325408
739.0393967,6041800.426085106
740.1885467999999,6041282.587589228
741.3415084,6041523.938211418
742.498292,6041349.3987891525
743.658908,6041682.543470183
744.8233667999999,6041026.177558086
745.9916785,6041609.620689474
747.1638532000001,6041236.894622227
748.3399009,6041267.287163357
749.5198315,6040997.277771267
750.7036546,6041894.717999257
751.89138,6041019.960727064
753.0830171,6041294.731642417
754.2785752999999,6041196.609560045
755.4780638,6040896.320479778
756.6814917,6041697.931365322
757.8888678999999,6041314.892698192
759.1002014999999,6041291.76002809
760.3155009,6041289.917748722
761.5347749,6036780.657062923
762.7580318,6023964.05980649
763.98528,5997712.657800937
765.2165276000001,5955951.308974412
766.4517825,5895347.040713949
767.6910527000001,5813382.031961722
768.9343458999999,5705559.672415217
770.1816697,5569875.59638177
771.4330313999999,5410181.127787641
772.6884382999999,5231843.763107789
773.9478975,5039085.463048446
775.211416,4832980.524139859
776.4790005,4616379.994471286
777.7506578,4391418.445752092
779.0263942,4162201.13336868
780.3062162,3932472.826492075
781.5901297,3704004.682353642
782.8781409,3478031.841765556
784.1702554999999,3257889.636634962
785.4664793,3047456.7490209923
786.7668176,2849790.805837604
788.0712758,2667880.449633716
789.3798591,2503522.8423466543
790.6925722999999,2356380.8811159288
792.0094204,2226130.71682236
793.3304079,2110622.710441304
794.6555392000001,2007214.1856742024
795.9848187000001,1913150.76315576
797.3182504,1825846.586434492
798.6558382999999,1742977.564362195
799.9975861,1663641.2775876955
801.3434973,1585741.904297726
802.6935752999999,1510419.1496726065
804.0478232999999,1437564.072187647
805.4062443,1367628.7720231244
806.7688411,1301695.3845820487
808.1356164,1240120.060906805
809.5065726,1183657.899297768
810.881712,1132334.1536698125
812.2610367000001,1085876.9113334347
813.6445485,1043587.3167137622
815.0322493,1004697.6743276272
816.4241404,968409.006576656
817.8202233,933318.2401410504
819.2204991,899116.5702209264
820.6249687999999,864897.1098753907
822.0336331,830232.955694159
823.4464925999999,794968.3611602952
824.8635477000001,759564.773113662
826.2847987,724118.5188902372
827.7102456,689123.515936417
829.1398882,655092.694732433
830.5737261,622111.7128145909
832.0117589,590517.13129382
833.4539857000001,560695.1867076791
834.9004057999999,532372.5912337779
836.3510179,505560.8878744025
837.8058209,479851.1261874744
839.2648132999999,455164.5877465536
840.7279934000001,431060.8606945975
842.1953594,407389.4142823333
843.6669092,384107.6578465593
845.1426408,361062.00322486064
846.6225517000001,338163.1508206549
848.1066392999999,315524.3289994862
849.5949009999999,293031.8247583148
851.0873337999999,271018.12152723875
852.5839347000001,249467.1316309073
854.0847002999999,228473.33789758905
855.5896273,208273.924826504
857.0987119999999,188741.7572744613
858.6119507000001,170146.76381401625
860.1293393999999,152510.40892807208
861.650874,136164.089540954
863.1765502000001,120960.25721488072
864.7063635,107014.17990464352
866.2403094,94338.80468785512
867.778383,82941.22315808732
869.3205793999999,72875.05904464095
870.8668935000001,63972.42718596479
872.4173199999999,56125.52867552271
873.9718536,49276.025414478776
875.5304886,43293.759152407234
877.0932193,38158.80559640124
878.6600399,33686.803771548395
880.2309443,29739.35129457298
881.8059264000001,26120.05528725268
883.3849798,22804.046260033087
884.9680981,19749.757825731333
886.5552747000002,16862.142316048292
888.1465029,14146.787363960331
889.7417757000001,11569.155556185571
891.3410862,9090.57184702946
892.9444273,6825.763449366958
894.5517916000001,4938.185893382236
896.1631719000001,3421.853088742012
897.7785605,2209.524925941165
899.3979498,1303.306992236457
901.0213321,660.9184241964713
902.6486995,256.61736409407644
904.280044,73.1600683633893
905.9153575,34.8168960149347
907.5546319,13.697765457150387
909.1978586,4.806466342541204
910.8450295,-3.375389010866936
912.4961358,-1.945838213316483
914.1511691,2.143651113792037
915.8101205,-5.588724546315235
917.4729813,-0.0847166052511163
919.1397426,-3.16334733574574
920.8103953,0.4415389257802514
922.4849303,4.762325317972104
924.1633386,0.3367390488550703
925.8456109,-2.954393976771409
927.5317378,1.1213101835771502
929.22171,-1.1784167152442042
930.9155179,-0.1959820145603092
932.6131521,2.623685655736
934.3146028,3.508808964553748
936.0198606,-1.4092467872262948
937.7289155,3.357051064217856
939.4417579,-0.1433549982058296
941.1583779,3.4924909085186995
942.8787656,1.7552833197681612
944.6029109,1.0438529115219704
946.3308041,1.61116527028671
948.0624349,-1.6406580822307812
949.7977933,0.0303627546615611
951.5368692,1.0054468414848572
953.2796523,2.8825024563870287
955.0261327,2.038386217692225
956.7762999,-0.9961022088620024
958.5301437,0.3059147389799099
960.2876539,-0.9832630871108788
962.0488201,-2.0465408019560334
963.813632,-3.145091001415989
965.5820793,-1.6500203217407448
967.3541517,-3.931627784697047
969.1298386,2.105018682888055
970.9091298,1.7033514814049606
972.6920149,-2.722886210281976
974.4784835,-0.4818640940231268
976.2685251,-0.3512474515183997
978.0621293,-4.374340339645181
979.8592859,-0.1795326001418748
981.6599843,1.1326973448076738
983.4642142,-1.3699780389486216
985.2719651,1.4194941617328218
987.0832269,-2.0340671427426784
988.897989,0.5951808195257647
990.7162412,0.8251880571268331
992.5379731,0.5697323218961414
994.3631745,-0.1305353913543167
996.191835,-2.5234487474089846
998.0239445,-1.4046168974828863
999.8594926,-1.721517714247634
1001.698469,0.1940873766338494
1003.540864,-2.4828015120146354
1005.386668,-0.2560380296789093
1007.235869,-1.0135027700346122
1009.088458,-1.3882057339090028
1010.944426,-1.4595044843212577
1012.803762,2.695458672122457
1014.666456,-1.7623914860927488
1016.532498,3.563393467847685
1018.401878,0.1326549887647255
1020.274588,2.036567084308109
1022.150616,-4.73185969603898
1024.029953,-1.7019446622146523
1025.912591,-1.3569396311604591
1027.798518,-1.7565954216705633
1029.687726,-0.98573078831702
1031.580205,0.4841937252135517
