wave,flux
306.2504509,1235.8980795438144
306.5604242,1781.4275887708386
306.871524,2372.61405396154
307.18375710000004,3037.822952129732
307.4971302,3752.8129885290714
307.8116501,4549.681807592292
308.1273236,4818.205118931449
308.4441577,5082.336091682062
308.7621594,5339.950151210536
309.0813356,5604.089633185881
309.4016935,5872.493669740071
309.7232403,6160.867121841308
310.04598300000004,6477.366859302028
310.369929,6818.98648501452
310.6950856,7163.484989545617
311.0214601,7549.760848596279
311.34906010000003,7961.378910482304
311.6778931,8396.619857443431
312.0079665,8856.994187767872
312.33928810000003,9325.612483374596
312.6718655,9805.848435347929
313.00570639999995,10295.844617905768
313.3408189,10815.784175144569
313.6772106,11347.803001717944
314.0148896,11901.297031967906
314.3538639,12469.541825058132
314.6941415,13074.952521045016
315.0357308,13686.962745455012
315.37863980000003,14341.892536730518
315.7228769,15016.774454968272
316.0684504,15730.750401618068
316.4153688,16505.763646295934
316.76364069999994,17309.07786134765
317.1132746,18160.047226762377
317.4642791,19073.894466993363
317.8166631,20023.83421166796
318.1704352,21016.471577689463
318.5256045,22029.74322962272
318.8821799,23059.4891710996
319.2401704,24083.001638177524
319.5995851,25143.52662597594
319.96043330000003,26188.01157977884
320.3227243,27199.653148182704
320.6864673,28213.820110438857
321.0516719,29232.89112252476
321.4183476,30277.988559886948
321.786504,31319.392612131094
322.1561508,32433.57151700781
322.5272977,33519.224847140984
322.8999548,34744.08159887561
323.2741319,36083.89864624666
323.649839,37553.44777252319
324.0270864,39134.500041913816
324.40588419999995,40986.01198282551
324.7862428,43089.11759026272
325.16817260000005,45447.010303889394
325.5516841,48209.29755451188
325.9367879,51476.148798182025
326.32349480000005,55340.248910533606
326.7118154,59874.40937703081
327.1017607,65135.9358864571
327.4933418,71328.275798649
327.88656960000003,78393.43970195213
328.2814555,86557.21616164887
328.6780106,95812.01079485768
329.0762465,106089.62906439416
329.47617460000004,117462.15809812363
329.8778065,129999.41259746792
330.281154,143616.4398318086
330.6862289,158405.01539283714
331.0930432,174282.41825673744
331.5016088,191415.14213734804
331.911938,209862.53207644305
332.32404310000004,229546.7274285264
332.7379364,250621.6289254919
333.1536305,272913.5922631126
333.571138,296439.7331659515
333.9904716,320966.4567917011
334.4116443,346325.2805318745
334.834669,372185.22938758624
335.2595588,398201.47369435866
335.686327,423997.82568128494
336.114987,449235.181095135
336.5455522,473799.0307418627
336.9780363,497516.9457347928
337.41245310000005,520366.1773729322
337.8488164,542288.3142082066
338.28714019999995,563307.6662027802
338.7274388,583868.8278055128
339.1697264,604181.8114734144
339.6140175,624457.0711056109
340.06032660000005,644998.9716737547
340.5086685,665811.438269335
340.959058,687132.4130936369
341.4115102,709038.8429751955
341.8660403,731282.2092445062
342.32266339999995,753634.9620481431
342.7813952,775943.5185565528
343.24225110000003,797797.9894579116
343.70524710000007,818753.6077243994
344.17039889999995,838934.822057585
344.6377228,858287.6033472236
345.1072349,877046.2288334527
345.5789517,895664.6453568784
346.0528897,914920.8895038456
346.5290657,935333.0696575867
347.0074967,957625.6168271564
347.48819960000003,982646.1205243422
347.9711917,1010254.5249129934
348.45649060000005,1040767.5354787224
348.9441137,1073936.109479302
349.434079,1109012.2091505493
349.9264043,1145107.866560611
350.4211078,1181194.1635228675
350.9182079,1216495.5655526516
351.4177232,1250058.288042222
351.9196722,1281344.1596885545
352.42407410000004,1310145.2733060794
352.9309478,1336618.1576533143
353.4403127,1361154.8079738172
353.95218839999995,1384587.654038586
354.4665945,1408108.238270915
354.983551,1432427.9549900205
355.503078,1458492.816974766
356.025196,1486694.6529482382
356.5499253,1517351.006031644
357.077287,1550738.286821131
357.6073018,1585755.798832252
358.1399912,1621576.2683141546
358.6753765,1656536.822204696
359.2134795,1689184.798180725
359.754322,1717007.550213926
360.2979263,1738569.4299341731
360.8443147,1752661.1296783884
361.3935098,1757801.9701426306
361.9455346,1753346.725575565
362.5004122,1740143.6699822338
363.058166,1719363.679089399
363.61881960000005,1692283.1667359695
364.1823969,1662398.9510895724
364.7489221,1632444.0308573544
365.3184196,1604927.0698760569
365.8909141,1583613.616981134
366.4664305,1569883.5140258314
367.0449943,1565702.7314385483
367.6266307,1572057.7399357366
368.2113658,1587676.5577553066
368.7992255,1611831.462642354
369.3902363,1641953.1571434708
369.9844249,1675436.1590255057
370.5818182,1709062.1443128698
371.1824436,1739917.9527541131
371.7863286000001,1764671.0721610948
372.3935012,1781635.571762766
373.0039896,1789776.767225054
373.6178223,1788361.8822801602
374.2350283,1777913.56387278
374.8556368,1760282.8239233205
375.4796772,1737912.52722403
376.1071796,1712996.997878926
376.7381741,1688478.861423863
377.3726913,1667481.2130361183
378.0107622,1652142.106132105
378.652418,1644449.0415451103
379.2976904,1646109.6930394538
379.9466115,1657333.2659197685
380.5992136,1678666.243864926
381.2555296,1709302.6618337806
381.9155926,1748897.5920701595
382.5794362,1796152.0356316662
383.2470943,1850024.7759566288
383.9186014,1909658.294211367
384.5939922,1973607.1982488504
385.2733019,2040925.1831341623
385.9565661,2112494.673691321
386.6438209,2187552.4901167587
387.3351027,2267231.734552602
388.0304484,2353049.891271147
388.7298955,2445872.7034608205
389.4334817,2548168.3673622785
390.1412452,2660661.5455918326
390.853225,2784913.6724949707
391.56946,2920887.904857874
392.2899901,3067223.8683661576
393.0148555,3222236.8516263864
393.7440968,3382526.775653088
394.4777551,3544176.393195891
395.2158722,3703180.972347037
395.9584903,3855801.5409891233
396.7056521,3998717.429310161
397.457401,4129492.883866038
398.2137806,4247811.697792192
398.9748353,4353988.479790608
399.7406101,4451321.792216054
400.5111505,4541667.679123647
401.2865024,4629569.070040122
402.0667126,4716959.482160925
402.8518283,4807203.411722095
403.6418973,4901499.242877761
404.436968,5001505.2327620685
405.2370896,5107202.408932485
406.0423117,5217782.117701652
406.8526847,5329347.645215905
407.66825960000006,5439961.523401991
408.4890879,5546836.812050888
409.3152221,5646627.989350564
410.1467152,5737272.890394732
410.9836208,5817496.3487967225
411.8259934,5884387.396277992
412.673888,5936233.97490753
413.5273605,5975502.239163785
414.38646760000006,6003498.274095479
415.2512664,6022459.9561505215
416.1218152,6034071.329044046
416.9981727,6039295.0866545215
417.8803987,6041341.237295222
418.7685535,6041136.121648893
419.6626985,6041382.411524395
420.5628957,6041940.773845692
421.4692081,6041752.466361208
422.3816994,6041100.719024813
423.3004343,6041762.595994155
424.2254783,6041649.743800517
425.1568978,6041240.732998728
426.0947602,6041352.962193606
427.0391337,6041375.353888123
427.9900874,6041289.469030994
428.9476917,6041218.492219399
429.9120175,6041244.428514227
430.8831369,6041200.400129913
431.8611232,6041828.69628041
432.8460504,6041582.231199491
433.8379937,6041306.043079319
434.8370293,6041487.614112991
435.8432345,6041401.531224662
436.8566878,6041710.132042527
437.8774686,6041484.273850503
438.9056575,6041490.988129345
439.9413364,6041364.667537263
440.9845882,6041679.861558169
442.035497,6041196.531249435
443.0941482,6041527.795872573
444.1606283,6041577.339176575
445.23502520000005,6041184.879970104
446.317428,6041485.321156932
447.407927,6041642.153730216
448.5066141,6041334.494446621
449.6135822,6041358.14866023
450.7289258,6041434.937510226
451.85274060000006,6041779.930161907
452.9851239,6041809.101421479
454.1261744,6041814.63667786
455.2759921,6041602.8887120215
456.4346788,6041589.330300025
457.6023374,6041590.998063062
458.7790727,6041208.2240324775
459.9649909,6041628.0119198775
461.1601998,6041579.962934034
462.364809,6041284.130751796
463.5789295,6041247.031541065
464.8026741000001,6041184.022675966
466.0361575,6041293.0879583815
467.2794956999999,6041202.817673441
468.5328070000001,6041346.37924806
469.7962111000001,6041598.265254362
471.0698299,6041539.610616121
472.3537868,6041244.0741636325
473.6482074,6041143.7675213525
474.9532192,6041786.526796085
476.2689517,6041408.142120961
477.5955362,6041822.078597913
478.93310639999993,6041371.473456634
480.2817979,6041480.342616745
481.6417484,6040656.47342517
483.01309800000007,6041791.778926862
484.3959889,6040957.028253829
485.7905654,6041252.589135832
487.1969743,6040977.571457673
488.6153648,6041304.674992748
490.0458884,6041205.880264808
491.488699,6041687.454744818
492.943953,6041645.213753565
494.4118094,6041170.574846147
495.8924299,6041642.135493245
497.3859785,6041491.628985566
498.8926222,6041504.539136483
500.4125306,6041359.990903441
501.9458762,6041481.70445447
503.4928341,6041219.624985552
505.0535827,6041183.115911254
506.628303,6041424.410657416
508.2171791999999,6041308.894732283
509.8203986,6041287.458380252
511.4381515,6041600.5690026125
513.0706316000001,6041502.168874713
514.7180356,6041931.973197597
516.3805639,6041478.596985939
518.0584200000001,6041806.575446852
519.7518110000001,6041690.522445339
521.4609475999999,6041417.178894086
523.186044,6041405.184361295
524.927318,6041897.945902841
526.6849915,6041228.209237801
528.45929,6041484.069620776
530.2504428000001,6041014.365133988
532.0586836,6041464.127764148
533.8842498,6041483.325448795
535.7273833,6041000.4754124135
537.5883299,6041232.508707427
539.46734,6041263.687831447
541.3646685,6041526.716390113
543.2805745000001,6041728.195418232
545.2153222000001,6041152.275906505
547.1691801,6041161.35594264
549.1424218999999,6041681.939480023
551.1353259,6041658.91003943
553.1481756000001,6041329.08411918
555.1812597,6041537.03194466
557.2348721,6041439.692524252
559.3093121,6041651.292992112
561.4048845,6041324.560699569
563.5218996,6041889.851216388
565.6606737000001,6041492.866186808
567.8215287,6041536.537185092
570.0047927,6041168.122415038
572.2107997,6041498.251629247
574.4398902,6040942.322812274
576.692411,6041355.886731788
578.9687155,6041657.5694468375
581.2691637,6041141.353710695
583.5941226,6041045.317577141
585.943966,6041312.837523983
588.3190752,6041845.8887333535
590.7198384999999,6041403.655541005
593.1466518,6041499.967106952
595.5999188999999,6041223.300563542
598.0800512,6040560.462720727
600.5874682,6041619.502775023
603.1225977000001,6041457.042462544
605.6858758999999,6041224.365222503
608.2777476,6041475.788496383
610.8986664,6041614.744526771
613.549095,6041209.29372669
616.2295054,6040807.304752451
618.940379,6041318.465822694
621.6822068,6041695.337144004
624.4554901,6041143.485588033
627.2607402000001,6042044.78280775
630.0984786,6042373.454789744
632.9692378999999,6041379.564958562
635.8735614,6041522.390154166
638.8120038,6040912.78793304
641.7851312999999,6039587.926692391
644.7935217999999,6040427.217676404
647.8377654,6042559.583613092
650.9184646000001,6039870.66430533
654.0362346,6040217.109160195
657.1917038,6039814.8495075535
657.501561,6041213.102491157
658.3833105,6041675.173506688
659.2678255,6041354.862794315
660.1551197000001,6041644.441429223
660.3855139,6041195.454206814
661.0452068,6041939.220913758
661.9381002,6041391.46357243
662.8338137000001,6041566.783747729
663.7323607999999,6041506.331844827
664.6337553,6041395.154352518
665.5380107000001,6041174.928814688
666.4451407,6041789.567108886
667.355159,6041768.990847449
668.2680793,6041025.600701578
669.1839152000001,6041878.621230503
670.1026805,6041536.203329182
671.0243889,6041817.049782247
671.949054,6041288.980459927
672.8766895,6041271.116313018
673.8073092,6041228.570076198
674.7409267,6041021.87285016
675.6775557999999,6041509.762488304
676.6172101,6041406.773123708
677.5599033,6041372.668337625
678.5056492000001,6041317.116322317
679.4544612999999,6041289.512202607
680.4063535,6041134.786884902
681.3613392999999,6041533.216924714
682.3194324,6041266.774412323
683.2806465,6041136.6792547135
684.2449952000001,6041656.735559247
685.2124921,6041453.935218197
686.1831509,6041477.807051958
687.1569850999999,6041447.407197123
688.1340083,6040951.0301357685
689.1142341,6041551.977994118
690.097676,6041295.175980351
691.0843474999999,6041496.867909148
692.0742622,6041330.458684293
693.0674334,6041360.913656178
694.0638748,6041843.168072684
695.0635996,6041188.541090461
696.0666212,6041507.856637272
697.0729531000001,6041130.160638803
698.0826086,6041226.637563645
699.0956008999999,6041517.02129734
700.1119432999999,6041433.962947777
701.1316491,6041447.719601933
702.1547314,6041815.003225118
703.1812034,6040981.717873668
704.2110782000001,6040967.6351438975
705.2443688999999,6041738.733177078
706.2810885,6041548.596795866
707.3212499,6041271.804002987
708.3648661000001,6041728.899340636
709.41195,6041584.068917628
710.4625143999999,6041240.915375478
711.5165721,6041437.214353087
712.5741357,6041658.888258887
713.6352181,6041853.817453749
714.6998317000001,6041671.885354993
715.7679891,6041130.504671548
716.8397027999999,6041436.080231153
717.9149852,6041318.773342314
718.9938487000001,6041110.558645267
720.0763055,6041722.756696959
721.162368,6041509.564044408
722.2520481,6041873.071762422
723.3453581,6041526.665576748
724.4423098,6041324.880358534
725.5429153,6041484.095598589
726.6471863,6041026.719533288
727.7551346,6041408.608434394
728.866772,6041784.03417271
729.9821099,6041725.843732835
731.1011599,6041513.788835146
732.2239335,6041210.168393136
733.3504419,6041645.331585477
734.4806963999999,6040885.036336835
735.6147081,6041689.546074187
736.7524882,6041305.1218696935
737.8940474,6041200.265325408
739.0393967,6041800.426085106
740.1885467999999,6041282.587589228
741.3415084,6041523.938211418
742.498292,6041349.3987891525
743.658908,6041682.543470183
744.8233667999999,6041026.177558086
745.9916785,6041609.620689474
747.1638532000001,6041236.894622227
748.3399009,6041267.287163357
749.5198315,6040997.277771267
750.7036546,6041894.717999257
751.89138,6041019.960727064
753.0830171,6041294.731642417
754.2785752999999,6041196.609560045
755.4780638,6040896.320479778
756.6814917,6041697.931365322
757.8888678999999,6041314.892698192
759.1002014999999,6041291.76002809
760.3155009,6041289.917748722
761.5347749,6036780.657062923
762.7580318,6023964.05980649
763.98528,5997712.657800937
765.2165276000001,5955951.308974412
766.4517825,5895347.040713949
767.6910527000001,5813382.031961722
768.9343458999999,5705559.672415217
770.1816697,5569875.59638177
771.4330313999999,5410181.127787641
772.6884382999999,5231843.763107789
773.9478975,5039085.463048446
775.211416,4832980.524139859
776.4790005,4616379.994471286
777.7506578,4391418.445752092
779.0263942,4162201.13336868
780.3062162,3932472.826492075
781.5901297,3704004.682353642
782.8781409,3478031.841765556
784.1702554999999,3257889.636634962
785.4664793,3047456.7490209923
786.7668176,2849790.805837604
788.0712758,2667880.449633716
789.3798591,2503522.8423466543
790.6925722999999,2356380.8811159288
792.0094204,2226130.71682236
793.3304079,2110622.710441304
794.6555392000001,2007214.1856742024
795.9848187000001,1913150.76315576
797.3182504,1825846.586434492
798.6558382999999,1742977.564362195
799.9975861,1663641.2775876955
801.3434973,1585741.904297726
802.6935752999999,1510419.1496726065
804.0478232999999,1437564.072187647
805.4062443,1367628.7720231244
806.7688411,1301695.3845820487
808.1356164,1240120.060906805
809.5065726,1183657.899297768
810.881712,1132334.1536698125
812.2610367000001,1085876.9113334347
813.6445485,1043587.3167137622
815.0322493,1004697.6743276272
816.4241404,968409.006576656
817.8202233,933318.2401410504
819.2204991,899116.5702209264
820.6249687999999,864897.1098753907
822.0336331,830232.955694159
823.4464925999999,794968.3611602952
824.8635477000001,759564.773113662
826.2847987,724118.5188902372
827.7102456,689123.515936417
829.1398882,655092.694732433
830.5737261,622111.7128145909
832.0117589,590517.13129382
833.4539857000001,560695.1867076791
834.9004057999999,532372.5912337779
836.3510179,505560.8878744025
837.8058209,479851.1261874744
839.2648132999999,455164.5877465536
840.7279934000001,431060.8606945975
842.1953594,407389.4142823333
843.6669092,384107.6578465593
845.1426408,361062.00322486064
846.6225517000001,338163.1508206549
848.1066392999999,315524.3289994862
849.5949009999999,293031.8247583148
851.0873337999999,271018.12152723875
852.5839347000001,249467.1316309073
854.0847002999999,228473.33789758905
855.5896273,208273.924826504
857.0987119999999,188741.7572744613
858.6119507000001,170146.76381401625
860.1293393999999,152510.40892807208
861.650874,136164.089540954
863.1765502000001,120960.25721488072
864.7063635,107014.17990464352
866.2403094,94338.80468785512
867.778383,82941.22315808732
869.3205793999999,72875.05904464095
870.8668935000001,63972.42718596479
872.4173199999999,56125.52867552271
873.9718536,49276.025414478776
875.5304886,43293.759152407234
877.0932193,38158.80559640124
878.6600399,33686.803771548395
880.2309443,29739.35129457298
881.8059264000001,26120.05528725268
883.3849798,22804.046260033087
884.9680981,19749.757825731333
886.5552747000002,16862.142316048292
888.1465029,14146.787363960331
889.7417757000001,11569.155556185571
891.3410862,9090.57184702946
892.9444273,6825.763449366958
894.5517916000001,4938.185893382236
896.1631719000001,3421.853088742012
897.7785605,2209.524925941165
899.3979498,1303.306992236457
901.0213321,660.9184241964713
902.6486995,256.61736409407644
904.280044,73.1600683633893
905.9153575,34.8168960149347
907.5546319,13.697765457150387
909.1978586,4.806466342541204
910.8450295,-3.375389010866936
912.4961358,-1.945838213316483
914.1511691,2.143651113792037
915.8101205,-5.588724546315235
917.4729813,-0.0847166052511163
919.1397426,-3.16334733574574
920.8103953,0.4415389257802514
922.4849303,4.762325317972104
924.1633386,0.3367390488550703
925.8456109,-2.954393976771409
927.5317378,1.1213101835771502
929.22171,-1.1784167152442042
930.9155179,-0.1959820145603092
932.6131521,2.623685655736
934.3146028,3.508808964553748
936.0198606,-1.4092467872262948
937.7289155,3.357051064217856
939.4417579,-0.1433549982058296
941.1583779,3.4924909085186995
942.8787656,1.7552833197681612
944.6029109,1.0438529115219704
946.3308041,1.61116527028671
948.0624349,-1.6406580822307812
949.7977933,0.0303627546615611
951.5368692,1.0054468414848572
953.2796523,2.8825024563870287
955.0261327,2.038386217692225
956.7762999,-0.9961022088620024
958.5301437,0.3059147389799099
960.2876539,-0.9832630871108788
962.0488201,-2.0465408019560334
963.813632,-3.145091001415989
965.5820793,-1.6500203217407448
967.3541517,-3.931627784697047
969.1298386,2.105018682888055
970.9091298,1.7033514814049606
972.6920149,-2.722886210281976
974.4784835,-0.4818640940231268
976.2685251,-0.3512474515183997
978.0621293,-4.374340339645181
979.8592859,-0.1795326001418748
981.6599843,1.1326973448076738
983.4642142,-1.3699780389486216
985.2719651,1.4194941617328218
987.0832269,-2.0340671427426784
988.897989,0.5951808195257647
990.7162412,0.8251880571268331
992.5379731,0.5697323218961414
994.3631745,-0.1305353913543167
996.191835,-2.5234487474089846
998.0239445,-1.4046168974828863
999.8594926,-1.721517714247634
1001.698469,0.1940873766338494
1003.540864,-2.4828015120146354
1005.386668,-0.2560380296789093
1007.235869,-1.0135027700346122
1009.088458,-1.3882057339090028
1010.944426,-1.4595044843212577
1012.803762,2.695458672122457
1014.666456,-1.7623914860927488
1016.532498,3.563393467847685
1018.401878,0.1326549887647255
1020.274588,2.036567084308109
1022.150616,-4.73185969603898
1024.029953,-1.7019446622146523
1025.912591,-1.3569396311604591
1027.798518,-1.7565954216705633
1029.687726,-0.98573078831702
1031.580205,0.4841937252135517
1033.475945,0.8186167813122637
1035.3749380000002,2.5893260434548018
1037.277175,1.538102537464364
1039.182645,-2.0127188922791954
