wave,flux
306.2504509,1080.797763062948
306.5604242,1527.9953460890506
306.871524,2014.6191709877355
307.18375710000004,2549.834447209493
307.4971302,3134.6265304777
307.8116501,3777.310968346794
308.1273236,4021.202110994799
308.4441577,4285.518682774435
308.7621594,4571.515918974944
309.0813356,4850.984278595192
309.4016935,5127.889035966852
309.7232403,5412.434235149399
310.04598300000004,5687.646032963624
310.369929,5949.9980698225045
310.6950856,6203.42569596074
311.0214601,6440.616360695947
311.34906010000003,6688.22030519588
311.6778931,6921.493214368985
312.0079665,7176.369277339955
312.33928810000003,7449.592926703971
312.6718655,7745.933664476295
313.00570639999995,8065.912827141425
313.3408189,8420.402494052332
313.6772106,8803.874981748697
314.0148896,9202.186307563756
314.3538639,9643.351188547964
314.6941415,10094.265855974383
315.0357308,10567.226322576817
315.37863980000003,11048.768151167484
315.7228769,11571.927034363658
316.0684504,12087.954515556825
316.4153688,12617.470375520636
316.76364069999994,13157.57856279848
317.1132746,13701.123612564665
317.4642791,14270.413243901396
317.8166631,14824.76590380623
318.1704352,15410.853590935569
318.5256045,15999.286992694468
318.8821799,16596.875176333117
319.2401704,17234.660533646198
319.5995851,17869.686311763002
319.96043330000003,18536.88237413469
320.3227243,19229.804167569066
320.6864673,19909.51188858641
321.0516719,20697.833244221954
321.4183476,21456.10783528896
321.786504,22291.831101028853
322.1561508,23146.86357284673
322.5272977,24077.50029766112
322.8999548,25075.626382687
323.2741319,26117.86489387468
323.649839,27398.86582372384
324.0270864,28744.823677135213
324.40588419999995,30394.086952864127
324.7862428,32325.87082437577
325.16817260000005,34591.660676085834
325.5516841,37405.58744524953
325.9367879,40705.45159456205
326.32349480000005,44632.85041245459
326.7118154,49276.244345856416
327.1017607,54684.57624461493
327.4933418,60852.85415878579
327.88656960000003,67708.55582640441
328.2814555,75452.5185550766
328.6780106,83744.27790828464
329.0762465,92813.09533564508
329.47617460000004,102527.0526228706
329.8778065,112959.74961012544
330.281154,124246.31418412358
330.6862289,136310.4488840451
331.0930432,149446.5820130271
331.5016088,163494.37405621866
331.911938,178703.43307094488
332.32404310000004,194985.24843202264
332.7379364,212120.0404094825
333.1536305,230168.356609314
333.571138,248526.2156090087
333.9904716,267209.960049173
334.4116443,285847.5479148616
334.834669,304151.5266105501
335.2595588,322005.5842817473
335.686327,339363.6187414145
336.114987,356138.4641604368
336.5455522,372672.03152004274
336.9780363,388759.7589959874
337.41245310000005,404972.03174058616
337.8488164,421116.0123757776
338.28714019999995,437389.9098497477
338.7274388,453834.82923867006
339.1697264,470172.6156409175
339.6140175,486548.7478650375
340.06032660000005,502870.2223287593
340.5086685,518925.4666411486
340.959058,535107.332214238
341.4115102,551420.6726579039
341.8660403,568292.2889022409
342.32266339999995,585894.494437246
342.7813952,604605.08740206
343.24225110000003,624432.27634563
343.70524710000007,645431.3238516576
344.17039889999995,667003.6588197212
344.6377228,688754.5523965313
345.1072349,709499.8024442164
345.5789517,728292.6044683134
346.0528897,744086.0530195853
346.5290657,755888.0182239094
347.0074967,763034.3732927468
347.48819960000003,765060.8787374028
347.9711917,762589.1408436041
348.45649060000005,755877.6531488709
348.9441137,746430.7651473854
349.434079,735361.7491510715
349.9264043,724571.5399024
350.4211078,715193.2750343591
350.9182079,709023.3867988632
351.4177232,706705.8091679219
351.9196722,708750.2013405394
352.42407410000004,715600.658876425
352.9309478,726151.1132660579
353.4403127,740039.664912993
353.95218839999995,755892.28733617
354.4665945,772121.5111244281
354.983551,787906.0404232536
355.503078,801551.993032948
356.025196,812227.6037021325
356.5499253,819223.3467880719
357.077287,822257.3008603739
357.6073018,821216.1140994077
358.1399912,817019.1747769838
358.6753765,810047.5040340455
359.2134795,801634.813870413
359.754322,792554.1252861632
360.2979263,784392.3979588152
360.8443147,777913.5119708027
361.3935098,774326.2590600159
361.9455346,774230.6530880324
362.5004122,777780.6611719151
363.058166,785085.1348965924
363.61881960000005,795737.7955361734
364.1823969,809352.0245312583
364.7489221,825076.0968394483
365.3184196,842213.1615626903
365.8909141,859834.0526650237
366.4664305,877249.3621966371
367.0449943,894118.9438346316
367.6266307,909968.8802540927
368.2113658,924451.85459625
368.7992255,937742.2173401556
369.3902363,949429.6623158952
369.9844249,959822.6698773636
370.5818182,968810.5477429432
371.1824436,976201.4822431678
371.7863286000001,982001.1445094346
372.3935012,986036.6164766992
373.0039896,988411.2831852292
373.6178223,989352.4703540588
374.2350283,988606.960485774
374.8556368,986922.4559560192
375.4796772,985022.1343032038
376.1071796,983523.1800885616
376.7381741,983053.6219818352
377.3726913,984754.2696239712
378.0107622,989049.2700569608
378.652418,997111.6585988872
379.2976904,1009348.8783075568
379.9466115,1025959.0184401588
380.5992136,1047442.4911465498
381.2555296,1073170.8750584582
381.9155926,1103503.3858556086
382.5794362,1137915.5686835048
383.2470943,1176109.5427895116
383.9186014,1217053.9471034457
384.5939922,1260600.7753731646
385.2733019,1305645.445398315
385.9565661,1351497.9102964865
386.6438209,1397217.902681678
387.3351027,1441590.184602697
388.0304484,1483309.746117969
388.7298955,1521556.547078542
389.4334817,1554725.9331179918
390.1412452,1582870.5143402028
390.853225,1605079.541049702
391.56946,1621763.6014848072
392.2899901,1633643.2712927796
393.0148555,1642041.101466576
393.7440968,1648906.5685107503
394.4777551,1656675.654911088
395.2158722,1667353.901287482
395.9584903,1682854.9668522654
396.7056521,1704817.098068784
397.457401,1733864.5440407996
398.2137806,1769277.187807797
398.9748353,1809835.43469452
399.7406101,1852694.5545634115
400.5111505,1894536.834437761
401.2865024,1931687.042132946
402.0667126,1960481.3459564885
402.8518283,1978103.2232224809
403.6418973,1982223.5913774744
404.436968,1972564.3278100227
405.2370896,1949757.733516444
406.0423117,1916386.64492484
406.8526847,1876029.752799139
407.66825960000006,1832985.295850464
408.4890879,1793161.1037521532
409.3152221,1761785.9296649662
410.1467152,1743201.2751640852
410.9836208,1742615.0833680704
411.8259934,1762631.2203676568
412.673888,1805323.057713052
413.5273605,1870865.9382290032
414.38646760000006,1959002.216937032
415.2512664,2066741.44542216
416.1218152,2191285.566696573
416.9981727,2327728.1475895927
417.8803987,2471943.6803743783
418.7685535,2619188.890535776
419.6626985,2765538.228796548
420.5628957,2908580.2792566875
421.4692081,3046510.8060713643
422.3816994,3179438.310034285
423.3004343,3307816.1435546163
424.2254783,3433861.077391961
425.1568978,3559073.8274681354
426.0947602,3684687.0197776817
427.0391337,3811330.535026361
427.9900874,3938157.438082828
428.9476917,4061577.527276236
429.9120175,4178659.767616619
430.8831369,4284527.109544797
431.8611232,4374321.332974057
432.8460504,4445094.429248099
433.8379937,4493917.414963284
434.8370293,4520896.176286709
435.8432345,4527655.287686107
436.8566878,4518057.437753895
437.8774686,4498359.568846565
438.9056575,4475660.35996491
439.9413364,4457381.427729026
440.9845882,4450601.363552375
442.035497,4462625.260272032
443.0941482,4500518.169397454
444.1606283,4568962.935222247
445.23502520000005,4667500.552180728
446.317428,4793471.558865803
447.407927,4940644.745933716
448.5066141,5102377.841473822
449.6135822,5271388.463521555
450.7289258,5438274.329408024
451.85274060000006,5592753.327717336
452.9851239,5725003.211666227
454.1261744,5830675.052562398
455.2759921,5911296.215009738
456.4346788,5969995.232142313
457.6023374,6008680.446536157
458.7790727,6030005.389430788
459.9649909,6039361.278023642
461.1601998,6041769.340330434
462.364809,6041438.539214369
463.5789295,6041101.336399747
464.8026741000001,6041417.958344908
466.0361575,6041520.195326048
467.2794956999999,6041072.671492904
468.5328070000001,6041338.099901252
469.7962111000001,6041300.816325142
471.0698299,6041277.072123437
472.3537868,6041472.860647983
473.6482074,6041733.92875853
474.9532192,6041749.484026955
476.2689517,6041887.663897275
477.5955362,6041368.479210479
478.93310639999993,6041483.9069692725
480.2817979,6041760.81592243
481.6417484,6041264.49335812
483.01309800000007,6041140.039464305
484.3959889,6041249.606688428
485.7905654,6041326.674271591
487.1969743,6041098.162335464
488.6153648,6041160.843435908
490.0458884,6041717.940971955
491.488699,6042018.683193153
492.943953,6041353.0695285015
494.4118094,6041269.3814965775
495.8924299,6041436.421400743
497.3859785,6041411.610743215
498.8926222,6041301.701032657
500.4125306,6041723.3510110285
501.9458762,6041219.05828712
503.4928341,6040958.294848391
505.0535827,6041875.231977822
506.628303,6041605.369939519
508.2171791999999,6041936.587596983
509.8203986,6041605.372551046
511.4381515,6041328.499908413
513.0706316000001,6041617.381205434
514.7180356,6041240.966092335
516.3805639,6041661.817452035
518.0584200000001,6041287.92907197
519.7518110000001,6041134.920138522
521.4609475999999,6041392.579262612
523.186044,6041209.242268205
524.927318,6041461.665298329
526.6849915,6041357.187741265
528.45929,6041684.05625977
530.2504428000001,6041541.197274278
532.0586836,6041736.434146369
533.8842498,6041019.700103504
535.7273833,6041710.122544055
537.5883299,6041516.31123613
539.46734,6041062.900296695
541.3646685,6041131.724928621
543.2805745000001,6041714.71455315
545.2153222000001,6041449.942333718
547.1691801,6041191.282721528
549.1424218999999,6041514.805973723
551.1353259,6041517.647437212
553.1481756000001,6042091.885894624
555.1812597,6041244.744187516
557.2348721,6041593.381759512
559.3093121,6041163.262673005
561.4048845,6041353.693057302
563.5218996,6041305.601141669
565.6606737000001,6041228.340932799
567.8215287,6041951.051881333
570.0047927,6041475.165045557
572.2107997,6041127.064667428
574.4398902,6041209.110631999
576.692411,6041206.153457282
578.9687155,6041463.369058923
581.2691637,6041320.396976022
583.5941226,6041381.203998448
585.943966,6041433.295573324
588.3190752,6041377.423227029
590.7198384999999,6041152.261951919
593.1466518,6041316.96400177
595.5999188999999,6041351.823348665
598.0800512,6041061.028272197
600.5874682,6041163.728060474
603.1225977000001,6041504.467132853
605.6858758999999,6041531.180661492
608.2777476,6041252.292889811
610.8986664,6041036.06703537
613.549095,6041583.571409122
616.2295054,6041672.137349432
618.940379,6041609.283744087
621.6822068,6041212.832455955
624.4554901,6043241.117418912
627.2607402000001,6042083.254996765
630.0984786,6039917.3280345285
632.9692378999999,6041887.794591881
635.8735614,6042427.673371802
638.8120038,6041372.433057164
641.7851312999999,6040928.178166064
644.7935217999999,6040685.2408745065
647.8377654,6043048.8007063
650.9184646000001,6043354.264562016
654.0362346,6044110.91886629
657.1917038,6043811.596513659
660.3855139,6043024.121709998
663.6183202999999,6043203.856541678
666.8907926,6042654.076542223
670.2036149,6042039.048435815
673.557486,6040530.523949739
676.9531202000001,6042421.220088899
680.3912472999999,6042111.737794125
683.8726131,6041945.321374253
687.3979803,6040256.6206651125
690.9681281000001,6041491.512113599
691.0843474999999,6041496.867909148
692.0742622,6041330.458684293
693.0674334,6041360.913656178
694.0638748,6041843.168072684
695.0635996,6041188.541090461
696.0666212,6041507.856637272
697.0729531000001,6041130.160638803
698.0826086,6041226.637563645
699.0956008999999,6041517.02129734
700.1119432999999,6041433.962947777
701.1316491,6041447.719601933
702.1547314,6041815.003225118
703.1812034,6040981.717873668
704.2110782000001,6040967.6351438975
705.2443688999999,6041738.733177078
706.2810885,6041548.596795866
707.3212499,6041271.804002987
708.3648661000001,6041728.899340636
709.41195,6041584.068917628
710.4625143999999,6041240.915375478
711.5165721,6041437.214353087
712.5741357,6041658.888258887
713.6352181,6041853.817453749
714.6998317000001,6041671.885354993
715.7679891,6041130.504671548
716.8397027999999,6041436.080231153
717.9149852,6041318.773342314
718.9938487000001,6041110.558645267
720.0763055,6041722.756696959
721.162368,6041509.564044408
722.2520481,6041873.071762422
723.3453581,6041526.665576748
724.4423098,6041324.880358534
725.5429153,6041484.095598589
726.6471863,6041026.719533288
727.7551346,6041408.608434394
728.866772,6041784.03417271
729.9821099,6041725.843732835
731.1011599,6041513.788835146
732.2239335,6041210.168393136
733.3504419,6041645.331585477
734.4806963999999,6040885.036336835
735.6147081,6041689.546074187
736.7524882,6041305.1218696935
737.8940474,6041200.265325408
739.0393967,6041800.426085106
740.1885467999999,6041282.587589228
741.3415084,6041523.938211418
742.498292,6041349.3987891525
743.658908,6041682.543470183
744.8233667999999,6041026.177558086
745.9916785,6041609.620689474
747.1638532000001,6041236.894622227
748.3399009,6041267.287163357
749.5198315,6040997.277771267
750.7036546,6041894.717999257
751.89138,6041019.960727064
753.0830171,6041294.731642417
754.2785752999999,6041196.609560045
755.4780638,6040896.320479778
756.6814917,6041697.931365322
757.8888678999999,6041314.892698192
759.1002014999999,6041291.76002809
760.3155009,6041289.917748722
761.5347749,6036780.657062923
762.7580318,6023964.05980649
763.98528,5997712.657800937
765.2165276000001,5955951.308974412
766.4517825,5895347.040713949
767.6910527000001,5813382.031961722
768.9343458999999,5705559.672415217
770.1816697,5569875.59638177
771.4330313999999,5410181.127787641
772.6884382999999,5231843.763107789
773.9478975,5039085.463048446
775.211416,4832980.524139859
776.4790005,4616379.994471286
777.7506578,4391418.445752092
779.0263942,4162201.13336868
780.3062162,3932472.826492075
781.5901297,3704004.682353642
782.8781409,3478031.841765556
784.1702554999999,3257889.636634962
785.4664793,3047456.7490209923
786.7668176,2849790.805837604
788.0712758,2667880.449633716
789.3798591,2503522.8423466543
790.6925722999999,2356380.8811159288
792.0094204,2226130.71682236
793.3304079,2110622.710441304
794.6555392000001,2007214.1856742024
795.9848187000001,1913150.76315576
797.3182504,1825846.586434492
798.6558382999999,1742977.564362195
799.9975861,1663641.2775876955
801.3434973,1585741.904297726
802.6935752999999,1510419.1496726065
804.0478232999999,1437564.072187647
805.4062443,1367628.7720231244
806.7688411,1301695.3845820487
808.1356164,1240120.060906805
809.5065726,1183657.899297768
810.881712,1132334.1536698125
812.2610367000001,1085876.9113334347
813.6445485,1043587.3167137622
815.0322493,1004697.6743276272
816.4241404,968409.006576656
817.8202233,933318.2401410504
819.2204991,899116.5702209264
820.6249687999999,864897.1098753907
822.0336331,830232.955694159
823.4464925999999,794968.3611602952
824.8635477000001,759564.773113662
826.2847987,724118.5188902372
827.7102456,689123.515936417
829.1398882,655092.694732433
830.5737261,622111.7128145909
832.0117589,590517.13129382
833.4539857000001,560695.1867076791
834.9004057999999,532372.5912337779
836.3510179,505560.8878744025
837.8058209,479851.1261874744
839.2648132999999,455164.5877465536
840.7279934000001,431060.8606945975
842.1953594,407389.4142823333
843.6669092,384107.6578465593
845.1426408,361062.00322486064
846.6225517000001,338163.1508206549
848.1066392999999,315524.3289994862
849.5949009999999,293031.8247583148
851.0873337999999,271018.12152723875
852.5839347000001,249467.1316309073
854.0847002999999,228473.33789758905
855.5896273,208273.924826504
857.0987119999999,188741.7572744613
858.6119507000001,170146.76381401625
860.1293393999999,152510.40892807208
861.650874,136164.089540954
863.1765502000001,120960.25721488072
864.7063635,107014.17990464352
866.2403094,94338.80468785512
867.778383,82941.22315808732
869.3205793999999,72875.05904464095
870.8668935000001,63972.42718596479
872.4173199999999,56125.52867552271
873.9718536,49276.025414478776
875.5304886,43293.759152407234
877.0932193,38158.80559640124
878.6600399,33686.803771548395
880.2309443,29739.35129457298
881.8059264000001,26120.05528725268
883.3849798,22804.046260033087
884.9680981,19749.757825731333
886.5552747000002,16862.142316048292
888.1465029,14146.787363960331
889.7417757000001,11569.155556185571
891.3410862,9090.57184702946
892.9444273,6825.763449366958
894.5517916000001,4938.185893382236
896.1631719000001,3421.853088742012
897.7785605,2209.524925941165
899.3979498,1303.306992236457
901.0213321,660.9184241964713
902.6486995,256.61736409407644
904.280044,73.1600683633893
905.9153575,34.8168960149347
907.5546319,13.697765457150387
909.1978586,4.806466342541204
910.8450295,-3.375389010866936
912.4961358,-1.945838213316483
914.1511691,2.143651113792037
915.8101205,-5.588724546315235
917.4729813,-0.0847166052511163
919.1397426,-3.16334733574574
920.8103953,0.4415389257802514
922.4849303,4.762325317972104
924.1633386,0.3367390488550703
925.8456109,-2.954393976771409
927.5317378,1.1213101835771502
929.22171,-1.1784167152442042
930.9155179,-0.1959820145603092
932.6131521,2.623685655736
934.3146028,3.508808964553748
936.0198606,-1.4092467872262948
937.7289155,3.357051064217856
939.4417579,-0.1433549982058296
941.1583779,3.4924909085186995
942.8787656,1.7552833197681612
944.6029109,1.0438529115219704
946.3308041,1.61116527028671
948.0624349,-1.6406580822307812
949.7977933,0.0303627546615611
951.5368692,1.0054468414848572
953.2796523,2.8825024563870287
955.0261327,2.038386217692225
956.7762999,-0.9961022088620024
958.5301437,0.3059147389799099
960.2876539,-0.9832630871108788
962.0488201,-2.0465408019560334
963.813632,-3.145091001415989
965.5820793,-1.6500203217407448
967.3541517,-3.931627784697047
969.1298386,2.105018682888055
970.9091298,1.7033514814049606
972.6920149,-2.722886210281976
974.4784835,-0.4818640940231268
976.2685251,-0.3512474515183997
978.0621293,-4.374340339645181
979.8592859,-0.1795326001418748
981.6599843,1.1326973448076738
983.4642142,-1.3699780389486216
985.2719651,1.4194941617328218
987.0832269,-2.0340671427426784
988.897989,0.5951808195257647
990.7162412,0.8251880571268331
992.5379731,0.5697323218961414
994.3631745,-0.1305353913543167
996.191835,-2.5234487474089846
998.0239445,-1.4046168974828863
999.8594926,-1.721517714247634
1001.698469,0.1940873766338494
1003.540864,-2.4828015120146354
1005.386668,-0.2560380296789093
1007.235869,-1.0135027700346122
1009.088458,-1.3882057339090028
1010.944426,-1.4595044843212577
1012.803762,2.695458672122457
1014.666456,-1.7623914860927488
1016.532498,3.563393467847685
1018.401878,0.1326549887647255
1020.274588,2.036567084308109
1022.150616,-4.73185969603898
1024.029953,-1.7019446622146523
1025.912591,-1.3569396311604591
1027.798518,-1.7565954216705633
1029.687726,-0.98573078831702
1031.580205,0.4841937252135517
1033.475945,0.8186167813122637
1035.3749380000002,2.5893260434548018
1037.277175,1.538102537464364
1039.182645,-2.0127188922791954
1041.09134,2.6250894347966467
1043.003251,0.2137404881779373
1044.918368,-0.0573575810121391
1046.836683,0.7728066703273068
1048.758188,3.079024708981095
1050.682872,1.7863592040068756
1052.610728,-0.9875552316154448
1054.541747,0.8450681541709223
1056.4759210000002,0.5606905164531844
1058.41324,2.214747155831732
1060.353697,-0.1533507103623259
1062.297282,-3.1936625878301363
1064.243989,-6.004355355014276
1066.193809,1.6975392031795646
1068.146734,-1.8391697537208151
1070.102755,-1.0996296138543131
1072.061865,0.8926713113443641
1074.024056,2.2107648134886464
1075.989321,-2.4650492132498067
1077.957651,0.1139664012951578
1079.92904,-0.1832930190834896
1081.9034800000002,-0.0468904277091718
1083.880963,0.5263171524006843
1085.861482,-1.851421895764164
1087.8450300000002,-6.139452158509519
1089.8316,1.0452978241809137
1091.821185,0.6195830011674871
1093.8137789999998,-1.4805380120059908
