wave,flux
306.2504509,1082.07265802827
306.5604242,1576.9802940689374
306.871524,2146.154943244196
307.18375710000004,2825.425283570908
307.4971302,3601.1241026611738
307.8116501,4476.20933574516
308.1273236,4865.717148681953
308.4441577,5279.857890980566
308.7621594,5701.493729507004
309.0813356,6158.697118833751
309.4016935,6613.222564910682
309.7232403,7096.634370669774
310.04598300000004,7593.470582907429
310.369929,8092.204998113464
310.6950856,8591.730731080685
311.0214601,9092.11608761906
311.34906010000003,9579.955652672625
311.6778931,10057.291855153975
312.0079665,10522.943979030691
312.33928810000003,10981.797814930973
312.6718655,11446.951931482006
313.00570639999995,11908.89230145776
313.3408189,12376.556518224326
313.6772106,12865.341830255707
314.0148896,13363.02644355454
314.3538639,13891.332717976202
314.6941415,14451.767754243476
315.0357308,15033.406729243046
315.37863980000003,15648.372953134984
315.7228769,16312.869722098269
316.0684504,17007.980223043527
316.4153688,17753.01222536763
316.76364069999994,18564.90335614492
317.1132746,19408.59304222432
317.4642791,20302.8504272528
317.8166631,21272.11735284727
318.1704352,22282.688724824628
318.5256045,23344.76624541997
318.8821799,24436.388661383306
319.2401704,25569.388208831373
319.5995851,26721.22304638969
319.96043330000003,27900.74640187427
320.3227243,29074.62023031745
320.6864673,30249.13208444753
321.0516719,31491.536044416986
321.4183476,32730.82488178309
321.786504,33981.27348720486
322.1561508,35324.58020519977
322.5272977,36678.30003137121
322.8999548,38169.441058537006
323.2741319,39801.02604809882
323.649839,41577.25141412415
324.0270864,43641.7216188806
324.40588419999995,46007.20040023277
324.7862428,48745.06869223771
325.16817260000005,51924.1546483218
325.5516841,55612.66177672683
325.9367879,59944.92051557164
326.32349480000005,64961.65493419032
326.7118154,70720.21722560197
327.1017607,77375.61141860162
327.4933418,84974.6242414812
327.88656960000003,93538.71071622694
328.2814555,103050.55630734393
328.6780106,113553.69365677336
329.0762465,124948.13319784123
329.47617460000004,137240.7750818785
329.8778065,150522.39132415236
330.281154,164617.17836461286
330.6862289,179634.53671051687
331.0930432,195631.3584711629
331.5016088,212747.99657963144
331.911938,230798.04610951585
332.32404310000004,250118.32091143663
332.7379364,270476.5238577973
333.1536305,291984.635850048
333.571138,314161.95014995843
333.9904716,337001.12532786827
334.4116443,360055.67994479125
334.834669,382751.03224572405
335.2595588,404537.12281912257
335.686327,425075.6360292053
336.114987,443862.6079376386
336.5455522,460547.9932004546
336.9780363,475012.42821757065
337.41245310000005,487668.4284540452
337.8488164,499108.05004477326
338.28714019999995,509995.2405091158
338.7274388,521703.01417245687
339.1697264,535737.205491986
339.6140175,553351.7129287884
340.06032660000005,576353.0115579497
340.5086685,605527.9908313692
340.959058,642088.8628483112
341.4115102,686572.538002473
341.8660403,738621.3031915147
342.32266339999995,798012.0455541417
342.7813952,863462.678184851
343.24225110000003,933526.7999541104
343.70524710000007,1006752.7613964956
344.17039889999995,1080968.8182800766
344.6377228,1154425.8814903586
345.1072349,1225126.7933173263
345.5789517,1291326.0260540887
346.0528897,1351744.1961843253
346.5290657,1404883.6238729144
347.0074967,1449682.747915376
347.48819960000003,1485290.0039330362
347.9711917,1511079.8621017754
348.45649060000005,1526558.0963895326
348.9441137,1532249.1478190904
349.434079,1528294.0091619885
349.9264043,1515488.9780191372
350.4211078,1495110.8369089558
350.9182079,1468474.5237197073
351.4177232,1437774.0560919482
351.9196722,1404755.368229118
352.42407410000004,1371221.424947766
352.9309478,1340033.8241030076
353.4403127,1312453.974470167
353.95218839999995,1290697.3860383446
354.4665945,1276780.7359941038
354.983551,1271664.0713723777
355.503078,1276675.420064394
356.025196,1292983.0616349978
356.5499253,1321056.8391671698
357.077287,1361056.1685247603
357.6073018,1412633.003619084
358.1399912,1475533.4389984773
358.6753765,1547473.9882774104
359.2134795,1627383.8055484982
359.754322,1712296.1644690242
360.2979263,1800028.0715104644
360.8443147,1886974.9063264453
361.3935098,1970616.577231506
361.9455346,2048079.1145092305
362.5004122,2117389.0633940133
363.058166,2176320.008495632
363.61881960000005,2224497.0614561136
364.1823969,2261468.951905584
364.7489221,2288238.040133561
365.3184196,2306387.424128972
365.8909141,2317683.954406635
366.4664305,2324514.246886508
367.0449943,2328844.411431325
367.6266307,2333067.509339557
368.2113658,2338246.7068088
368.7992255,2345854.975790075
369.3902363,2355792.264722366
369.9844249,2367467.5809762813
370.5818182,2379986.4420963656
371.1824436,2391749.5589754973
371.7863286000001,2401593.81948261
372.3935012,2407324.822419557
373.0039896,2407684.127388901
373.6178223,2401928.28408126
374.2350283,2389649.434673223
374.8556368,2369854.523685396
375.4796772,2343416.4410821684
376.1071796,2310612.245752416
376.7381741,2272019.5236982973
377.3726913,2229006.065267096
378.0107622,2182586.727250596
378.652418,2134075.7185928333
379.2976904,2085366.498639028
379.9466115,2037591.266555913
380.5992136,1993085.619195889
381.2555296,1952902.102433791
381.9155926,1919023.997121601
382.5794362,1893655.4482201403
383.2470943,1877333.002889584
383.9186014,1871201.683608923
384.5939922,1875921.559751129
385.2733019,1891435.169179757
385.9565661,1917301.545730513
386.6438209,1952565.4739958872
387.3351027,1995836.4601144856
388.0304484,2046805.9442073745
388.7298955,2103165.6433372498
389.4334817,2164503.6787042944
390.1412452,2229550.447175873
390.853225,2297926.6252212925
391.56946,2369072.576041128
392.2899901,2442303.7354930886
393.0148555,2517192.2967067948
393.7440968,2592868.604225104
394.4777551,2669203.692332376
395.2158722,2744349.14463863
395.9584903,2817397.779526834
396.7056521,2886705.4650041764
397.457401,2950821.137769948
398.2137806,3008250.7081868867
398.9748353,3058861.8943789164
399.7406101,3101893.2586602536
400.5111505,3138431.6827573245
401.2865024,3169391.189260089
402.0667126,3197358.151936383
402.8518283,3225223.394306891
403.6418973,3256513.991616933
404.436968,3294611.9796923264
405.2370896,3343723.264815228
406.0423117,3406521.2700334783
406.8526847,3485658.243716724
407.66825960000006,3582001.172328892
408.4890879,3696567.0189710273
409.3152221,3827771.953090082
410.1467152,3972806.17321756
410.9836208,4128708.5008982914
411.8259934,4291227.92319341
412.673888,4454904.775192741
413.5273605,4616321.690522963
414.38646760000006,4771290.63663192
415.2512664,4917063.594594672
416.1218152,5052454.089816853
416.9981727,5177082.865495356
417.8803987,5292791.761072246
418.7685535,5399196.071972218
419.6626985,5498164.42955138
420.5628957,5589576.625365406
421.4692081,5673866.416226498
422.3816994,5751479.88469426
423.3004343,5821093.241875201
424.2254783,5881849.256889361
425.1568978,5931129.003386859
426.0947602,5969582.480177875
427.0391337,5997972.367927953
427.9900874,6018563.121547929
428.9476917,6031071.549751396
429.9120175,6038143.787858277
430.8831369,6041007.353858094
431.8611232,6041582.467816961
432.8460504,6041035.833441922
433.8379937,6041191.517094723
434.8370293,6041562.2959996825
435.8432345,6040975.258669648
436.8566878,6041316.476861567
437.8774686,6041119.985633199
438.9056575,6041561.181071928
439.9413364,6041460.0042283125
440.9845882,6041546.418970194
442.035497,6041556.761503888
443.0941482,6041526.876828297
444.1606283,6041919.873041745
445.23502520000005,6041378.8137634825
446.317428,6041405.046322961
447.407927,6041306.8541769525
448.5066141,6041127.423468352
449.6135822,6041310.97002147
450.7289258,6041206.493312667
451.85274060000006,6040692.154034642
452.9851239,6041011.016478932
454.1261744,6041770.813779135
455.2759921,6041447.426921391
456.4346788,6041286.582151586
457.6023374,6041585.966390007
458.7790727,6041410.711687634
459.9649909,6041686.805360707
461.1601998,6041378.264649016
462.364809,6041381.437897816
463.5789295,6041226.346802533
464.8026741000001,6041330.39209245
466.0361575,6041373.284421672
467.2794956999999,6041502.435428662
468.5328070000001,6041450.194811693
469.7962111000001,6041396.586767487
471.0698299,6041583.601079438
472.3537868,6041524.511558767
473.6482074,6041491.780044627
474.9532192,6041067.058220248
476.2689517,6041343.094874366
477.5955362,6041401.73452325
478.93310639999993,6041465.171182573
480.2817979,6041255.392634148
481.6417484,6041393.393282004
483.01309800000007,6041627.12721498
484.3959889,6041734.580364858
485.7905654,6041363.127800832
487.1969743,6040979.476546281
488.6153648,6041331.275959075
490.0458884,6041586.091435633
491.488699,6041816.690619468
492.943953,6041598.763107885
494.4118094,6041739.483945852
495.8924299,6041496.028446209
497.3859785,6041364.5892567085
498.8926222,6041354.461789077
500.4125306,6041844.431038807
501.9458762,6041446.0878919065
503.4928341,6041386.656769866
505.0535827,6041389.724218102
506.628303,6041243.260907432
508.2171791999999,6041117.579105296
509.8203986,6041590.266740417
511.4381515,6041615.788472199
513.0706316000001,6041166.72146579
514.7180356,6041505.684621078
516.3805639,6041687.889706847
518.0584200000001,6041580.283307153
519.7518110000001,6041343.004036352
521.4609475999999,6041908.986272902
523.186044,6041450.506623273
524.927318,6041336.565075345
526.6849915,6041272.831956362
528.45929,6041691.341162766
530.2504428000001,6041251.298932789
532.0586836,6041443.77335592
533.8842498,6041524.831512095
535.7273833,6041857.800755506
537.5883299,6041552.556480235
539.46734,6041480.437916333
541.3646685,6041114.95427763
543.2805745000001,6041606.467373393
545.2153222000001,6041452.440018938
547.1691801,6040914.580445271
549.1424218999999,6041298.192482082
551.1353259,6041692.064520283
553.1481756000001,6041307.055403036
555.1812597,6041317.903751292
557.2348721,6041134.931321642
559.3093121,6041568.377653793
561.4048845,6041409.341611237
563.5218996,6041561.998861099
565.6606737000001,6041599.134135188
567.8215287,6041088.977243822
570.0047927,6041286.628454814
572.2107997,6041375.988028823
574.4398902,6041723.789583516
576.692411,6041373.60387254
578.9687155,6041429.741297463
581.2691637,6041410.376505532
583.5941226,6041498.632192338
585.943966,6041764.379517548
588.3190752,6041026.840626955
590.7198384999999,6041255.56772779
593.1466518,6041743.97355262
595.5999188999999,6041298.944701713
598.0800512,6041704.475352257
600.5874682,6041553.862667128
603.1225977000001,6041432.782450408
605.6858758999999,6041542.526735687
608.2777476,6041447.419089598
610.8986664,6041392.561459059
613.549095,6041355.834099035
616.2295054,6041437.341690435
618.940379,6041284.808583736
621.6822068,6042501.527076445
624.4554901,6041343.226204424
627.2607402000001,6041315.596091587
630.0984786,6041728.611758482
632.9692378999999,6041538.518780342
635.8735614,6041504.349889092
638.8120038,6041839.967211465
641.7851312999999,6042208.234947437
644.7935217999999,6043140.65208627
647.8377654,6041221.975165512
650.9184646000001,6041227.726004702
654.0362346,6042842.05712553
657.1917038,6040874.5049371775
660.3855139,6041065.202083088
663.6183202999999,6040592.742359501
666.8907926,6039511.350801965
670.2036149,6043729.500589234
673.557486,6040445.621555564
676.9531202000001,6043280.561645052
680.3912472999999,6041266.639245397
682.3194324,6041266.774412323
683.2806465,6041136.6792547135
684.2449952000001,6041656.735559247
685.2124921,6041453.935218197
686.1831509,6041477.807051958
687.1569850999999,6041447.407197123
688.1340083,6040951.0301357685
689.1142341,6041551.977994118
690.097676,6041295.175980351
691.0843474999999,6041496.867909148
692.0742622,6041330.458684293
693.0674334,6041360.913656178
694.0638748,6041843.168072684
695.0635996,6041188.541090461
696.0666212,6041507.856637272
697.0729531000001,6041130.160638803
698.0826086,6041226.637563645
699.0956008999999,6041517.02129734
700.1119432999999,6041433.962947777
701.1316491,6041447.719601933
702.1547314,6041815.003225118
703.1812034,6040981.717873668
704.2110782000001,6040967.6351438975
705.2443688999999,6041738.733177078
706.2810885,6041548.596795866
707.3212499,6041271.804002987
708.3648661000001,6041728.899340636
709.41195,6041584.068917628
710.4625143999999,6041240.915375478
711.5165721,6041437.214353087
712.5741357,6041658.888258887
713.6352181,6041853.817453749
714.6998317000001,6041671.885354993
715.7679891,6041130.504671548
716.8397027999999,6041436.080231153
717.9149852,6041318.773342314
718.9938487000001,6041110.558645267
720.0763055,6041722.756696959
721.162368,6041509.564044408
722.2520481,6041873.071762422
723.3453581,6041526.665576748
724.4423098,6041324.880358534
725.5429153,6041484.095598589
726.6471863,6041026.719533288
727.7551346,6041408.608434394
728.866772,6041784.03417271
729.9821099,6041725.843732835
731.1011599,6041513.788835146
732.2239335,6041210.168393136
733.3504419,6041645.331585477
734.4806963999999,6040885.036336835
735.6147081,6041689.546074187
736.7524882,6041305.1218696935
737.8940474,6041200.265325408
739.0393967,6041800.426085106
740.1885467999999,6041282.587589228
741.3415084,6041523.938211418
742.498292,6041349.3987891525
743.658908,6041682.543470183
744.8233667999999,6041026.177558086
745.9916785,6041609.620689474
747.1638532000001,6041236.894622227
748.3399009,6041267.287163357
749.5198315,6040997.277771267
750.7036546,6041894.717999257
751.89138,6041019.960727064
753.0830171,6041294.731642417
754.2785752999999,6041196.609560045
755.4780638,6040896.320479778
756.6814917,6041697.931365322
757.8888678999999,6041314.892698192
759.1002014999999,6041291.76002809
760.3155009,6041289.917748722
761.5347749,6036780.657062923
762.7580318,6023964.05980649
763.98528,5997712.657800937
765.2165276000001,5955951.308974412
766.4517825,5895347.040713949
767.6910527000001,5813382.031961722
768.9343458999999,5705559.672415217
770.1816697,5569875.59638177
771.4330313999999,5410181.127787641
772.6884382999999,5231843.763107789
773.9478975,5039085.463048446
775.211416,4832980.524139859
776.4790005,4616379.994471286
777.7506578,4391418.445752092
779.0263942,4162201.13336868
780.3062162,3932472.826492075
781.5901297,3704004.682353642
782.8781409,3478031.841765556
784.1702554999999,3257889.636634962
785.4664793,3047456.7490209923
786.7668176,2849790.805837604
788.0712758,2667880.449633716
789.3798591,2503522.8423466543
790.6925722999999,2356380.8811159288
792.0094204,2226130.71682236
793.3304079,2110622.710441304
794.6555392000001,2007214.1856742024
795.9848187000001,1913150.76315576
797.3182504,1825846.586434492
798.6558382999999,1742977.564362195
799.9975861,1663641.2775876955
801.3434973,1585741.904297726
802.6935752999999,1510419.1496726065
804.0478232999999,1437564.072187647
805.4062443,1367628.7720231244
806.7688411,1301695.3845820487
808.1356164,1240120.060906805
809.5065726,1183657.899297768
810.881712,1132334.1536698125
812.2610367000001,1085876.9113334347
813.6445485,1043587.3167137622
815.0322493,1004697.6743276272
816.4241404,968409.006576656
817.8202233,933318.2401410504
819.2204991,899116.5702209264
820.6249687999999,864897.1098753907
822.0336331,830232.955694159
823.4464925999999,794968.3611602952
824.8635477000001,759564.773113662
826.2847987,724118.5188902372
827.7102456,689123.515936417
829.1398882,655092.694732433
830.5737261,622111.7128145909
832.0117589,590517.13129382
833.4539857000001,560695.1867076791
834.9004057999999,532372.5912337779
836.3510179,505560.8878744025
837.8058209,479851.1261874744
839.2648132999999,455164.5877465536
840.7279934000001,431060.8606945975
842.1953594,407389.4142823333
843.6669092,384107.6578465593
845.1426408,361062.00322486064
846.6225517000001,338163.1508206549
848.1066392999999,315524.3289994862
849.5949009999999,293031.8247583148
851.0873337999999,271018.12152723875
852.5839347000001,249467.1316309073
854.0847002999999,228473.33789758905
855.5896273,208273.924826504
857.0987119999999,188741.7572744613
858.6119507000001,170146.76381401625
860.1293393999999,152510.40892807208
861.650874,136164.089540954
863.1765502000001,120960.25721488072
864.7063635,107014.17990464352
866.2403094,94338.80468785512
867.778383,82941.22315808732
869.3205793999999,72875.05904464095
870.8668935000001,63972.42718596479
872.4173199999999,56125.52867552271
873.9718536,49276.025414478776
875.5304886,43293.759152407234
877.0932193,38158.80559640124
878.6600399,33686.803771548395
880.2309443,29739.35129457298
881.8059264000001,26120.05528725268
883.3849798,22804.046260033087
884.9680981,19749.757825731333
886.5552747000002,16862.142316048292
888.1465029,14146.787363960331
889.7417757000001,11569.155556185571
891.3410862,9090.57184702946
892.9444273,6825.763449366958
894.5517916000001,4938.185893382236
896.1631719000001,3421.853088742012
897.7785605,2209.524925941165
899.3979498,1303.306992236457
901.0213321,660.9184241964713
902.6486995,256.61736409407644
904.280044,73.1600683633893
905.9153575,34.8168960149347
907.5546319,13.697765457150387
909.1978586,4.806466342541204
910.8450295,-3.375389010866936
912.4961358,-1.945838213316483
914.1511691,2.143651113792037
915.8101205,-5.588724546315235
917.4729813,-0.0847166052511163
919.1397426,-3.16334733574574
920.8103953,0.4415389257802514
922.4849303,4.762325317972104
924.1633386,0.3367390488550703
925.8456109,-2.954393976771409
927.5317378,1.1213101835771502
929.22171,-1.1784167152442042
930.9155179,-0.1959820145603092
932.6131521,2.623685655736
934.3146028,3.508808964553748
936.0198606,-1.4092467872262948
937.7289155,3.357051064217856
939.4417579,-0.1433549982058296
941.1583779,3.4924909085186995
942.8787656,1.7552833197681612
944.6029109,1.0438529115219704
946.3308041,1.61116527028671
948.0624349,-1.6406580822307812
949.7977933,0.0303627546615611
951.5368692,1.0054468414848572
953.2796523,2.8825024563870287
955.0261327,2.038386217692225
956.7762999,-0.9961022088620024
958.5301437,0.3059147389799099
960.2876539,-0.9832630871108788
962.0488201,-2.0465408019560334
963.813632,-3.145091001415989
965.5820793,-1.6500203217407448
967.3541517,-3.931627784697047
969.1298386,2.105018682888055
970.9091298,1.7033514814049606
972.6920149,-2.722886210281976
974.4784835,-0.4818640940231268
976.2685251,-0.3512474515183997
978.0621293,-4.374340339645181
979.8592859,-0.1795326001418748
981.6599843,1.1326973448076738
983.4642142,-1.3699780389486216
985.2719651,1.4194941617328218
987.0832269,-2.0340671427426784
988.897989,0.5951808195257647
990.7162412,0.8251880571268331
992.5379731,0.5697323218961414
994.3631745,-0.1305353913543167
996.191835,-2.5234487474089846
998.0239445,-1.4046168974828863
999.8594926,-1.721517714247634
1001.698469,0.1940873766338494
1003.540864,-2.4828015120146354
1005.386668,-0.2560380296789093
1007.235869,-1.0135027700346122
1009.088458,-1.3882057339090028
1010.944426,-1.4595044843212577
1012.803762,2.695458672122457
1014.666456,-1.7623914860927488
1016.532498,3.563393467847685
1018.401878,0.1326549887647255
1020.274588,2.036567084308109
1022.150616,-4.73185969603898
1024.029953,-1.7019446622146523
1025.912591,-1.3569396311604591
1027.798518,-1.7565954216705633
1029.687726,-0.98573078831702
1031.580205,0.4841937252135517
1033.475945,0.8186167813122637
1035.3749380000002,2.5893260434548018
1037.277175,1.538102537464364
1039.182645,-2.0127188922791954
1041.09134,2.6250894347966467
1043.003251,0.2137404881779373
1044.918368,-0.0573575810121391
1046.836683,0.7728066703273068
1048.758188,3.079024708981095
1050.682872,1.7863592040068756
1052.610728,-0.9875552316154448
1054.541747,0.8450681541709223
1056.4759210000002,0.5606905164531844
1058.41324,2.214747155831732
1060.353697,-0.1533507103623259
1062.297282,-3.1936625878301363
1064.243989,-6.004355355014276
1066.193809,1.6975392031795646
1068.146734,-1.8391697537208151
1070.102755,-1.0996296138543131
1072.061865,0.8926713113443641
1074.024056,2.2107648134886464
1075.989321,-2.4650492132498067
1077.957651,0.1139664012951578
1079.92904,-0.1832930190834896
