wave,flux
306.2504509,169.75229719002962
306.5604242,236.3281532475057
306.871524,312.9256539668939
307.18375710000004,397.24410512562247
307.4971302,482.6876160816465
307.8116501,577.7831864208251
308.1273236,613.9884063430152
308.4441577,642.0812668827798
308.7621594,682.9384159651312
309.0813356,714.3731582805701
309.4016935,745.7266072923343
309.7232403,782.2359910666275
310.04598300000004,821.4394387518845
310.369929,861.2625203004635
310.6950856,899.6709845818502
311.0214601,937.8215698225464
311.34906010000003,984.6141373738308
311.6778931,1021.9105983050396
312.0079665,1074.620532837441
312.33928810000003,1120.5830458608643
312.6718655,1169.9589985722168
313.00570639999995,1233.372641499789
313.3408189,1290.9610389240586
313.6772106,1352.5041109384786
314.0148896,1428.3245677260725
314.3538639,1498.6925101325448
314.6941415,1580.7089855977283
315.0357308,1652.6784552118647
315.37863980000003,1745.07764621561
315.7228769,1823.887564626376
316.0684504,1909.8973627770629
316.4153688,2000.8751077793725
316.76364069999994,2093.2300506024226
317.1132746,2190.594834579441
317.4642791,2287.746177695106
317.8166631,2386.2979483190816
318.1704352,2491.030161108557
318.5256045,2597.537144177903
318.8821799,2713.52732216842
319.2401704,2829.6940495744648
319.5995851,2960.153336192571
319.96043330000003,3078.777806006928
320.3227243,3220.7984555954763
320.6864673,3344.6247197081466
321.0516719,3496.4032538642164
321.4183476,3651.580067956792
321.786504,3806.652648259917
322.1561508,3964.75411504949
322.5272977,4139.6591570607925
322.8999548,4331.521647838064
323.2741319,4521.6831513021725
323.649839,4746.017494226149
324.0270864,4984.139697348642
324.40588419999995,5256.610479498976
324.7862428,5580.749429876952
325.16817260000005,5950.810244055808
325.5516841,6376.802719295712
325.9367879,6875.63055120809
326.32349480000005,7492.369952622829
326.7118154,8201.60833288749
327.1017607,9031.446961038537
327.4933418,10005.35486132991
327.88656960000003,11134.48587970688
328.2814555,12430.59359755666
328.6780106,13908.591531651256
329.0762465,15565.030033956868
329.47617460000004,17419.45349050326
329.8778065,19446.45573763204
330.281154,21664.37493306667
330.6862289,24051.02838734415
331.0930432,26624.42997013136
331.5016088,29355.75942015194
331.911938,32232.24467853424
332.32404310000004,35266.21275386894
332.7379364,38395.05591838163
333.1536305,41582.948379598434
333.571138,44845.5653247828
333.9904716,48086.70987993256
334.4116443,51320.57895344705
334.834669,54480.7916487206
335.2595588,57565.792690728864
335.686327,60516.649611167566
336.114987,63288.06078755287
336.5455522,65955.59847585749
336.9780363,68424.53425078322
337.41245310000005,70685.2535737051
337.8488164,72741.77539390017
338.28714019999995,74631.39158627798
338.7274388,76288.45482366822
339.1697264,77759.76473103816
339.6140175,79042.19895012013
340.06032660000005,80239.16638119315
340.5086685,81340.81324381707
340.959058,82461.81598035473
341.4115102,83691.40165778769
341.8660403,85065.52815753604
342.32266339999995,86719.73472243534
342.7813952,88690.05253444436
343.24225110000003,90943.65215951424
343.70524710000007,93550.29806553976
344.17039889999995,96442.8494808994
344.6377228,99526.1782707562
345.1072349,102786.4573031571
345.5789517,106088.32198437926
346.0528897,109396.68337168547
346.5290657,112624.61228095574
347.0074967,115742.24295252546
347.48819960000003,118792.90737366903
347.9711917,121736.76416863831
348.45649060000005,124712.43667371484
348.9441137,127691.14097120696
349.434079,130830.47908653165
349.9264043,134095.67238850932
350.4211078,137653.58867809398
350.9182079,141443.89879318778
351.4177232,145581.45713263054
351.9196722,149970.47647000974
352.42407410000004,154598.22855701132
352.9309478,159383.58912999992
353.4403127,164235.21030369593
353.95218839999995,169015.2860458044
354.4665945,173610.73389574408
354.983551,177896.94895270173
355.503078,181857.8734923221
356.025196,185470.3447616952
356.5499253,188693.6560024705
357.077287,191762.512529968
357.6073018,194795.2504041377
358.1399912,197990.5406460836
358.6753765,201605.3066647852
359.2134795,205927.98577511444
359.754322,211131.22882662804
360.2979263,217471.08529179235
360.8443147,224924.467292991
361.3935098,233707.978662456
361.9455346,243741.4726007807
362.5004122,254925.1319193643
363.058166,267193.5895695934
363.61881960000005,280285.97660058795
364.1823969,294003.6075793162
364.7489221,308291.09483560896
365.3184196,322891.2132703302
365.8909141,337545.29271356703
366.4664305,352153.9924221125
367.0449943,366447.5211147216
367.6266307,380429.3346689112
368.2113658,393856.8723094364
368.7992255,406581.2619164934
369.3902363,418444.8933525737
369.9844249,429448.4964561172
370.5818182,439456.31406209
371.1824436,448264.9894258343
371.7863286000001,456048.868148771
372.3935012,462862.0324378594
373.0039896,468719.577203681
373.6178223,473901.87873229705
374.2350283,478554.7469468031
374.8556368,483147.9865008286
375.4796772,487794.6104440869
376.1071796,493026.1422370654
376.7381741,499112.63542211725
377.3726913,506314.9723338744
378.0107622,515001.07458833273
378.652418,525226.0273173003
379.2976904,537568.4817973857
379.9466115,551820.4809156406
380.5992136,568571.0562704145
381.2555296,587743.2987840491
381.9155926,609423.2128332695
382.5794362,633507.7394389164
383.2470943,659899.3134257814
383.9186014,688433.6155715754
384.5939922,718579.9723187361
385.2733019,749848.5612340701
385.9565661,782179.4500864242
386.6438209,814380.5135498651
387.3351027,846889.8991006461
388.0304484,879277.2538911839
388.7298955,911866.452883104
389.4334817,944590.6246240812
390.1412452,979080.5778021372
390.853225,1016020.2274951632
391.56946,1056224.6806233122
392.2899901,1100495.7252259117
393.0148555,1149972.4939857123
393.7440968,1205180.790546717
394.4777551,1266822.462242872
395.2158722,1335076.791347138
395.9584903,1409349.8375446068
396.7056521,1489297.9776025058
397.457401,1574792.8826418312
398.2137806,1665123.2934196088
398.9748353,1759792.1619854097
399.7406101,1858126.6837127432
400.5111505,1958587.422920747
401.2865024,2060862.270297016
402.0667126,2163815.58868458
402.8518283,2267012.6236657216
403.6418973,2369461.7424999927
404.436968,2470816.669544056
405.2370896,2570589.227009808
406.0423117,2668940.380587753
406.8526847,2765172.4667359176
407.66825960000006,2860061.124009288
408.4890879,2953013.018903909
409.3152221,3044474.628228435
410.1467152,3134245.733963669
410.9836208,3222930.3988430533
411.8259934,3311540.620919186
412.673888,3400382.195675158
413.5273605,3490236.0468111136
414.38646760000006,3583084.7697695624
415.2512664,3679481.903109945
416.1218152,3781333.780106079
416.9981727,3889607.040582456
417.8803987,4003752.6037456775
418.7685535,4124245.370977125
419.6626985,4249312.348484526
420.5628957,4377988.789851612
421.4692081,4507565.655016828
422.3816994,4636701.324855755
423.3004343,4764175.040675637
424.2254783,4888683.44031104
425.1568978,5010863.07756687
426.0947602,5130293.0508271735
427.0391337,5247488.442884098
427.9900874,5360571.303876207
428.9476917,5470552.171767401
429.9120175,5574515.59293282
430.8831369,5672339.719780101
431.8611232,5760953.911878184
432.8460504,5838247.415956026
433.8379937,5901640.117765964
434.8370293,5950053.36536222
435.8432345,5986971.101692848
436.8566878,6012474.482770095
437.8774686,6027998.403892172
438.9056575,6037046.718499482
439.9413364,6040798.654332623
440.9845882,6041276.165041093
442.035497,6041914.367742142
443.0941482,6041580.523141725
444.1606283,6041608.781664573
445.23502520000005,6041863.274936985
446.317428,6041434.074952734
447.407927,6041533.517438537
448.5066141,6041050.201304123
449.6135822,6041381.132991744
450.7289258,6041502.094317688
451.85274060000006,6041541.078300918
452.9851239,6041238.975237106
454.1261744,6040967.325638684
455.2759921,6041382.289318021
456.4346788,6041489.621295719
457.6023374,6041053.387627811
458.7790727,6041280.342637946
459.9649909,6041392.323472161
461.1601998,6041377.762378482
462.364809,6041534.508154527
463.5789295,6040815.282377264
464.8026741000001,6041002.907426196
466.0361575,6041181.075533073
467.2794956999999,6041468.226049816
468.5328070000001,6041473.848168123
469.7962111000001,6041282.2172928685
471.0698299,6041086.252365889
472.3537868,6041689.390399855
473.6482074,6041457.925313203
474.9532192,6041470.175422039
476.2689517,6041307.494105217
477.5955362,6041824.746081959
478.93310639999993,6041141.787225788
480.2817979,6041559.146029261
481.6417484,6041850.58774938
483.01309800000007,6041541.194474484
484.3959889,6041446.285688303
485.7905654,6041309.943230148
487.1969743,6041409.484734142
488.6153648,6041764.59465587
490.0458884,6041643.852190496
491.488699,6041174.087227961
492.943953,6041200.834819723
494.4118094,6042018.340676183
495.8924299,6041168.195812151
497.3859785,6041036.129357764
498.8926222,6041430.950394251
500.4125306,6041240.560979793
501.9458762,6041174.745410727
503.4928341,6041838.802906867
505.0535827,6041363.510777483
506.628303,6041643.545797705
508.2171791999999,6041578.786811195
509.8203986,6041254.052225727
511.4381515,6041309.726237123
513.0706316000001,6041471.103961669
514.7180356,6041394.103425912
516.3805639,6041492.341982484
518.0584200000001,6041584.838732191
519.7518110000001,6041613.746639826
521.4609475999999,6041572.714214927
523.186044,6041995.6278746575
524.927318,6041456.701816076
526.6849915,6041318.081908438
528.45929,6041601.845683686
530.2504428000001,6041108.609961297
532.0586836,6041331.26742105
533.8842498,6041159.525817381
535.7273833,6041206.598844458
537.5883299,6041492.896539314
539.46734,6041463.108392159
541.3646685,6041477.085907128
543.2805745000001,6041249.781703007
545.2153222000001,6041834.860934167
547.1691801,6041056.1825443925
549.1424218999999,6041427.543281687
551.1353259,6041764.904568822
553.1481756000001,6041367.282470797
555.1812597,6041492.404724816
557.2348721,6041184.112133077
559.3093121,6041474.245513816
561.4048845,6041308.964458826
563.5218996,6041228.585298214
565.6606737000001,6041397.64195446
567.8215287,6040965.270400241
570.0047927,6041468.647825303
572.2107997,6040793.304097158
574.4398902,6041749.853914094
576.692411,6041797.072947388
578.9687155,6041615.588908877
581.2691637,6041027.247045588
583.5941226,6041248.206679971
585.943966,6041114.690083259
588.3190752,6041067.970605428
590.7198384999999,6041268.704530949
593.1466518,6041684.574709376
595.5999188999999,6041411.186689298
598.0800512,6041020.689074773
600.5874682,6041494.876988919
603.1225977000001,6041283.866511118
605.6858758999999,6041456.058674605
608.2777476,6041432.194340088
610.8986664,6041867.558446845
613.549095,6041211.601126462
616.2295054,6041283.279325927
618.940379,6040726.702862454
621.6822068,6040465.589771492
624.4554901,6041922.277184289
627.2607402000001,6041333.38658649
630.0984786,6041599.7201192165
632.9692378999999,6040898.471708288
635.8735614,6041576.660654202
638.8120038,6040946.711414741
641.7851312999999,6042768.43848649
644.7935217999999,6041435.811760032
647.1313635,6041432.707553772
647.980979,6041639.2935286
648.8331985,6041530.901683455
649.6880352999999,6041238.076626463
650.5455028,6041684.580826319
651.4056144,6041370.302348843
652.2683836,6041758.53502382
653.1338237000001,6041033.48180772
654.0019482999999,6041398.277759437
654.8727708,6041174.869245926
655.7463047,6041098.4605098935
656.6225636,6041247.998199501
657.501561,6041213.102491157
658.3833105,6041675.173506688
659.2678255,6041354.862794315
660.1551197000001,6041644.441429223
661.0452068,6041939.220913758
661.9381002,6041391.46357243
662.8338137000001,6041566.783747729
663.7323607999999,6041506.331844827
664.6337553,6041395.154352518
665.5380107000001,6041174.928814688
666.4451407,6041789.567108886
667.355159,6041768.990847449
668.2680793,6041025.600701578
669.1839152000001,6041878.621230503
670.1026805,6041536.203329182
671.0243889,6041817.049782247
671.949054,6041288.980459927
672.8766895,6041271.116313018
673.8073092,6041228.570076198
674.7409267,6041021.87285016
675.6775557999999,6041509.762488304
676.6172101,6041406.773123708
677.5599033,6041372.668337625
678.5056492000001,6041317.116322317
679.4544612999999,6041289.512202607
680.4063535,6041134.786884902
681.3613392999999,6041533.216924714
682.3194324,6041266.774412323
683.2806465,6041136.6792547135
684.2449952000001,6041656.735559247
685.2124921,6041453.935218197
686.1831509,6041477.807051958
687.1569850999999,6041447.407197123
688.1340083,6040951.0301357685
689.1142341,6041551.977994118
690.097676,6041295.175980351
691.0843474999999,6041496.867909148
692.0742622,6041330.458684293
693.0674334,6041360.913656178
694.0638748,6041843.168072684
695.0635996,6041188.541090461
696.0666212,6041507.856637272
697.0729531000001,6041130.160638803
698.0826086,6041226.637563645
699.0956008999999,6041517.02129734
700.1119432999999,6041433.962947777
701.1316491,6041447.719601933
702.1547314,6041815.003225118
703.1812034,6040981.717873668
704.2110782000001,6040967.6351438975
705.2443688999999,6041738.733177078
706.2810885,6041548.596795866
707.3212499,6041271.804002987
708.3648661000001,6041728.899340636
709.41195,6041584.068917628
710.4625143999999,6041240.915375478
711.5165721,6041437.214353087
712.5741357,6041658.888258887
713.6352181,6041853.817453749
714.6998317000001,6041671.885354993
715.7679891,6041130.504671548
716.8397027999999,6041436.080231153
717.9149852,6041318.773342314
718.9938487000001,6041110.558645267
720.0763055,6041722.756696959
721.162368,6041509.564044408
722.2520481,6041873.071762422
723.3453581,6041526.665576748
724.4423098,6041324.880358534
725.5429153,6041484.095598589
726.6471863,6041026.719533288
727.7551346,6041408.608434394
728.866772,6041784.03417271
729.9821099,6041725.843732835
731.1011599,6041513.788835146
732.2239335,6041210.168393136
733.3504419,6041645.331585477
734.4806963999999,6040885.036336835
735.6147081,6041689.546074187
736.7524882,6041305.1218696935
737.8940474,6041200.265325408
739.0393967,6041800.426085106
740.1885467999999,6041282.587589228
741.3415084,6041523.938211418
742.498292,6041349.3987891525
743.658908,6041682.543470183
744.8233667999999,6041026.177558086
745.9916785,6041609.620689474
747.1638532000001,6041236.894622227
748.3399009,6041267.287163357
749.5198315,6040997.277771267
750.7036546,6041894.717999257
751.89138,6041019.960727064
753.0830171,6041294.731642417
754.2785752999999,6041196.609560045
755.4780638,6040896.320479778
756.6814917,6041697.931365322
757.8888678999999,6041314.892698192
759.1002014999999,6041291.76002809
760.3155009,6041289.917748722
761.5347749,6036780.657062923
762.7580318,6023964.05980649
763.98528,5997712.657800937
765.2165276000001,5955951.308974412
766.4517825,5895347.040713949
767.6910527000001,5813382.031961722
768.9343458999999,5705559.672415217
770.1816697,5569875.59638177
771.4330313999999,5410181.127787641
772.6884382999999,5231843.763107789
773.9478975,5039085.463048446
775.211416,4832980.524139859
776.4790005,4616379.994471286
777.7506578,4391418.445752092
779.0263942,4162201.13336868
780.3062162,3932472.826492075
781.5901297,3704004.682353642
782.8781409,3478031.841765556
784.1702554999999,3257889.636634962
785.4664793,3047456.7490209923
786.7668176,2849790.805837604
788.0712758,2667880.449633716
789.3798591,2503522.8423466543
790.6925722999999,2356380.8811159288
792.0094204,2226130.71682236
793.3304079,2110622.710441304
794.6555392000001,2007214.1856742024
795.9848187000001,1913150.76315576
797.3182504,1825846.586434492
798.6558382999999,1742977.564362195
799.9975861,1663641.2775876955
801.3434973,1585741.904297726
802.6935752999999,1510419.1496726065
804.0478232999999,1437564.072187647
805.4062443,1367628.7720231244
806.7688411,1301695.3845820487
808.1356164,1240120.060906805
809.5065726,1183657.899297768
810.881712,1132334.1536698125
812.2610367000001,1085876.9113334347
813.6445485,1043587.3167137622
815.0322493,1004697.6743276272
816.4241404,968409.006576656
817.8202233,933318.2401410504
819.2204991,899116.5702209264
820.6249687999999,864897.1098753907
822.0336331,830232.955694159
823.4464925999999,794968.3611602952
824.8635477000001,759564.773113662
826.2847987,724118.5188902372
827.7102456,689123.515936417
829.1398882,655092.694732433
830.5737261,622111.7128145909
832.0117589,590517.13129382
833.4539857000001,560695.1867076791
834.9004057999999,532372.5912337779
836.3510179,505560.8878744025
837.8058209,479851.1261874744
839.2648132999999,455164.5877465536
840.7279934000001,431060.8606945975
842.1953594,407389.4142823333
843.6669092,384107.6578465593
845.1426408,361062.00322486064
846.6225517000001,338163.1508206549
848.1066392999999,315524.3289994862
849.5949009999999,293031.8247583148
851.0873337999999,271018.12152723875
852.5839347000001,249467.1316309073
854.0847002999999,228473.33789758905
855.5896273,208273.924826504
857.0987119999999,188741.7572744613
858.6119507000001,170146.76381401625
860.1293393999999,152510.40892807208
861.650874,136164.089540954
863.1765502000001,120960.25721488072
864.7063635,107014.17990464352
866.2403094,94338.80468785512
867.778383,82941.22315808732
869.3205793999999,72875.05904464095
870.8668935000001,63972.42718596479
872.4173199999999,56125.52867552271
873.9718536,49276.025414478776
875.5304886,43293.759152407234
877.0932193,38158.80559640124
878.6600399,33686.803771548395
880.2309443,29739.35129457298
881.8059264000001,26120.05528725268
883.3849798,22804.046260033087
884.9680981,19749.757825731333
886.5552747000002,16862.142316048292
888.1465029,14146.787363960331
889.7417757000001,11569.155556185571
891.3410862,9090.57184702946
892.9444273,6825.763449366958
894.5517916000001,4938.185893382236
896.1631719000001,3421.853088742012
897.7785605,2209.524925941165
899.3979498,1303.306992236457
901.0213321,660.9184241964713
902.6486995,256.61736409407644
904.280044,73.1600683633893
905.9153575,34.8168960149347
907.5546319,13.697765457150387
909.1978586,4.806466342541204
910.8450295,-3.375389010866936
912.4961358,-1.945838213316483
914.1511691,2.143651113792037
915.8101205,-5.588724546315235
917.4729813,-0.0847166052511163
919.1397426,-3.16334733574574
920.8103953,0.4415389257802514
922.4849303,4.762325317972104
924.1633386,0.3367390488550703
925.8456109,-2.954393976771409
927.5317378,1.1213101835771502
929.22171,-1.1784167152442042
930.9155179,-0.1959820145603092
932.6131521,2.623685655736
934.3146028,3.508808964553748
936.0198606,-1.4092467872262948
937.7289155,3.357051064217856
939.4417579,-0.1433549982058296
941.1583779,3.4924909085186995
942.8787656,1.7552833197681612
944.6029109,1.0438529115219704
946.3308041,1.61116527028671
948.0624349,-1.6406580822307812
949.7977933,0.0303627546615611
951.5368692,1.0054468414848572
953.2796523,2.8825024563870287
955.0261327,2.038386217692225
956.7762999,-0.9961022088620024
958.5301437,0.3059147389799099
960.2876539,-0.9832630871108788
962.0488201,-2.0465408019560334
963.813632,-3.145091001415989
965.5820793,-1.6500203217407448
967.3541517,-3.931627784697047
969.1298386,2.105018682888055
970.9091298,1.7033514814049606
972.6920149,-2.722886210281976
974.4784835,-0.4818640940231268
976.2685251,-0.3512474515183997
978.0621293,-4.374340339645181
979.8592859,-0.1795326001418748
981.6599843,1.1326973448076738
983.4642142,-1.3699780389486216
985.2719651,1.4194941617328218
987.0832269,-2.0340671427426784
988.897989,0.5951808195257647
990.7162412,0.8251880571268331
992.5379731,0.5697323218961414
994.3631745,-0.1305353913543167
996.191835,-2.5234487474089846
998.0239445,-1.4046168974828863
999.8594926,-1.721517714247634
1001.698469,0.1940873766338494
1003.540864,-2.4828015120146354
1005.386668,-0.2560380296789093
1007.235869,-1.0135027700346122
1009.088458,-1.3882057339090028
1010.944426,-1.4595044843212577
1012.803762,2.695458672122457
1014.666456,-1.7623914860927488
1016.532498,3.563393467847685
1018.401878,0.1326549887647255
1020.274588,2.036567084308109
1022.150616,-4.73185969603898
1024.029953,-1.7019446622146523
1025.912591,-1.3569396311604591
1027.798518,-1.7565954216705633
