wave,flux
306.2504509,208.28337715933543
306.5604242,285.4304208545992
306.871524,373.6695502156094
307.18375710000004,464.6408992948743
307.4971302,569.2840776273848
307.8116501,684.7217717119017
308.1273236,727.7482704011685
308.4441577,770.4982384900479
308.7621594,829.4650722098552
309.0813356,893.446737615333
309.4016935,972.4476289717352
309.7232403,1062.6013518390362
310.04598300000004,1157.5514996015006
310.369929,1270.1748389808797
310.6950856,1384.5217860155826
311.0214601,1511.5884991984756
311.34906010000003,1656.6833303277165
311.6778931,1805.7287739587675
312.0079665,1960.474485631555
312.33928810000003,2111.544664198107
312.6718655,2268.868339353736
313.00570639999995,2428.1571013377998
313.3408189,2601.581873740368
313.6772106,2773.339537562568
314.0148896,2951.6296572560327
314.3538639,3127.729322434685
314.6941415,3312.518867769368
315.0357308,3514.4332369019426
315.37863980000003,3726.256489520284
315.7228769,3931.052351244023
316.0684504,4140.398637712404
316.4153688,4344.625365496735
316.76364069999994,4545.781247597714
317.1132746,4761.123195044821
317.4642791,4962.590091435947
317.8166631,5153.359945738718
318.1704352,5353.204861880012
318.5256045,5548.237769876469
318.8821799,5739.156548461529
319.2401704,5947.00306690419
319.5995851,6139.852548246678
319.96043330000003,6342.031832374725
320.3227243,6549.088185093014
320.6864673,6761.040191738714
321.0516719,6951.814540264657
321.4183476,7171.477825387665
321.786504,7392.529545558611
322.1561508,7625.533815308648
322.5272977,7857.021107563759
322.8999548,8109.266828328682
323.2741319,8411.49454842829
323.649839,8755.92617807065
324.0270864,9126.896830868034
324.40588419999995,9590.727132259455
324.7862428,10108.476800645172
325.16817260000005,10751.950503057717
325.5516841,11515.519397236869
325.9367879,12400.110895646532
326.32349480000005,13490.297958577785
326.7118154,14794.248704447178
327.1017607,16330.009527747185
327.4933418,18154.52883614173
327.88656960000003,20314.80151585905
328.2814555,22830.690068032767
328.6780106,25701.563078400508
329.0762465,29005.776976789813
329.47617460000004,32620.88303610873
329.8778065,36628.05970732567
330.281154,40926.42179524797
330.6862289,45444.62976780191
331.0930432,50113.622214956726
331.5016088,54811.57876062734
331.911938,59413.56944316383
332.32404310000004,63821.608603504494
332.7379364,67885.87510890371
333.1536305,71592.72416538875
333.571138,74782.06258450849
333.9904716,77511.11328214977
334.4116443,79770.17481539957
334.834669,81531.51918298853
335.2595588,82956.92658040496
335.686327,84058.1992271038
336.114987,84921.31309373378
336.5455522,85603.98609979023
336.9780363,86209.82272365139
337.41245310000005,86715.06960605826
337.8488164,87196.97591305283
338.28714019999995,87633.09864183194
338.7274388,88042.38279769449
339.1697264,88476.39435625974
339.6140175,88930.69990271199
340.06032660000005,89524.29541957227
340.5086685,90425.59126000517
340.959058,91756.95899081476
341.4115102,93749.39006020255
341.8660403,96742.4225085493
342.32266339999995,100822.4305633827
342.7813952,106522.35309105656
343.24225110000003,113944.43835736306
343.70524710000007,123519.16935261886
344.17039889999995,135348.7533415834
344.6377228,149648.90773916568
345.1072349,166464.35304429205
345.5789517,185748.9353007497
346.0528897,207439.79586327047
346.5290657,231199.6552467433
347.0074967,256664.656209157
347.48819960000003,283345.15004808456
347.9711917,310589.7267318906
348.45649060000005,337965.75232237123
348.9441137,364763.8305922968
349.434079,390341.94952372846
349.9264043,414203.2482395989
350.4211078,436013.6926902641
350.9182079,455296.3054392746
351.4177232,471927.8175449344
351.9196722,485787.1073744546
352.42407410000004,497042.7108453712
352.9309478,505763.0552719605
353.4403127,512083.5524282017
353.95218839999995,516133.67572466994
354.4665945,518034.65494055033
354.983551,517930.8149412017
355.503078,515855.6258797146
356.025196,511912.1830886811
356.5499253,506157.15873767255
357.077287,498718.8460612583
357.6073018,489719.415347891
358.1399912,479341.174961968
358.6753765,468076.343763648
359.2134795,456291.7183885052
359.754322,444496.9723856025
360.2979263,433074.7232050215
360.8443147,422548.6902173139
361.3935098,413162.2648024971
361.9455346,405287.1044082617
362.5004122,399104.1087397248
363.058166,394748.52385319705
363.61881960000005,392026.0974885391
364.1823969,391097.3433518879
364.7489221,391828.4557375616
365.3184196,394365.2089969907
365.8909141,398479.610246941
366.4664305,404405.3992612076
367.0449943,411965.2818644716
367.6266307,421322.1610768832
368.2113658,432331.4557869812
368.7992255,444883.3185604645
369.3902363,458616.9131894753
369.9844249,473235.4201890014
370.5818182,488106.7962843618
371.1824436,502924.3031348715
371.7863286000001,516900.36700541206
372.3935012,529606.8014161257
373.0039896,540470.7833127081
373.6178223,549242.542968203
374.2350283,555730.8502790451
374.8556368,559820.3604667508
375.4796772,561550.7220051676
376.1071796,561324.166409809
376.7381741,559396.9463913633
377.3726913,556339.3378979272
378.0107622,552510.366254836
378.652418,548442.4872707857
379.2976904,545092.2005446237
379.9466115,542812.9277405302
380.5992136,542093.6251015281
381.2555296,543358.1297846965
381.9155926,546844.2934124526
382.5794362,552790.204077538
383.2470943,561000.072393887
383.9186014,571189.3397905448
384.5939922,583077.2468066778
385.2733019,596126.8429136836
385.9565661,609754.5691741997
386.6438209,623460.2721723707
387.3351027,636963.4364218
388.0304484,650190.32825405
388.7298955,662950.4485402703
389.4334817,675350.2994659506
390.1412452,688402.1898662241
390.853225,702555.0100492598
391.56946,718171.26034793
392.2899901,736164.8359885991
393.0148555,756833.4962663472
393.7440968,780538.8840165351
394.4777551,807806.8858624544
395.2158722,839000.7444481569
395.9584903,873195.9493355611
396.7056521,910616.433756156
397.457401,951121.37526854
398.2137806,994744.8189394644
398.9748353,1041233.1964638924
399.7406101,1090423.7238794346
400.5111505,1141766.549251357
401.2865024,1194940.306838285
402.0667126,1249693.541835127
402.8518283,1306019.567122826
403.6418973,1363112.4247197637
404.436968,1420847.5433291811
405.2370896,1478686.6266701487
406.0423117,1536884.6632620625
406.8526847,1595349.6607006115
407.66825960000006,1653695.096154219
408.4890879,1712359.7790406838
409.3152221,1771119.6564266388
410.1467152,1829830.220315658
410.9836208,1888066.820457013
411.8259934,1945163.415692288
412.673888,2001040.331951657
413.5273605,2054509.76628837
414.38646760000006,2105246.061200542
415.2512664,2152539.43029617
416.1218152,2196790.2596852183
416.9981727,2238346.619342539
417.8803987,2277742.005572125
418.7685535,2316565.677682836
419.6626985,2357149.1089560846
420.5628957,2401890.006178766
421.4692081,2452879.6881531808
422.3816994,2512520.4010411752
423.3004343,2582989.860516144
424.2254783,2665328.136924176
425.1568978,2758920.0584565736
426.0947602,2863109.690793409
427.0391337,2975441.15803622
427.9900874,3092617.500394848
428.9476917,3210668.160795542
429.9120175,3324871.5895066983
430.8831369,3431694.112312092
431.8611232,3527708.1894478467
432.8460504,3610034.878543282
433.8379937,3678882.594958177
434.8370293,3734239.711024157
435.8432345,3778822.751327872
436.8566878,3815103.1267957306
437.8774686,3847147.59142068
438.9056575,3878678.533450129
439.9413364,3914290.554608364
440.9845882,3955657.56314098
442.035497,4003987.2219276014
443.0941482,4058668.599877557
444.1606283,4119610.261365978
445.23502520000005,4184282.3482117737
446.317428,4249837.074802101
447.407927,4315180.938335253
448.5066141,4377665.918870199
449.6135822,4438344.649114018
450.7289258,4499335.583665469
451.85274060000006,4564572.530800459
452.9851239,4640192.636864184
454.1261744,4730821.530813347
455.2759921,4836745.1918900665
456.4346788,4958766.198226544
457.6023374,5095404.98691272
458.7790727,5242358.84262134
459.9649909,5394045.4370807065
461.1601998,5542957.131673805
462.364809,5677830.885937347
463.5789295,5788910.944912823
464.8026741000001,5877757.330198351
466.0361575,5945736.173205798
467.2794956999999,5993369.528700423
468.5328070000001,6022513.7665787535
469.7962111000001,6037168.621440539
471.0698299,6040908.548896415
472.3537868,6041138.861331486
473.6482074,6041355.981632932
474.9532192,6041190.802758094
476.2689517,6041166.980404754
477.5955362,6041438.261693354
478.93310639999993,6041460.820161423
480.2817979,6042035.0699449
481.6417484,6041348.563890404
483.01309800000007,6041431.920213132
484.3959889,6041306.535316744
485.7905654,6041384.493549707
487.1969743,6041470.6978298975
488.6153648,6041548.435989693
490.0458884,6041754.782342106
491.488699,6042151.586361865
492.943953,6041365.032105763
494.4118094,6041496.54294806
495.8924299,6041664.361085214
497.3859785,6041136.902132873
498.8926222,6041472.719571274
500.4125306,6041605.18831107
501.9458762,6040948.886694427
503.4928341,6041436.22810421
505.0535827,6041536.238283537
506.628303,6041232.106864294
508.2171791999999,6041678.078511809
509.8203986,6041694.788652767
511.4381515,6041394.733111265
513.0706316000001,6041681.511741002
514.7180356,6041087.981529153
516.3805639,6041662.486223344
518.0584200000001,6041631.340264119
519.7518110000001,6041570.500661382
521.4609475999999,6041481.197761628
523.186044,6041434.991311214
524.927318,6041496.763110917
526.6849915,6041506.464876376
528.45929,6041526.526014688
530.2504428000001,6041564.339922389
532.0586836,6041630.801037463
533.8842498,6041469.8386877375
535.7273833,6041447.1508018775
537.5883299,6041531.220440052
539.46734,6041908.319539097
541.3646685,6041706.036908752
543.2805745000001,6041300.1182974335
545.2153222000001,6041284.30670729
547.1691801,6040877.698601877
549.1424218999999,6040997.30315138
551.1353259,6041477.583821368
553.1481756000001,6041708.590890454
555.1812597,6041126.830820517
557.2348721,6041233.996492227
559.3093121,6041594.041413745
561.4048845,6041718.547543462
563.5218996,6041505.590737827
565.6606737000001,6041155.630411786
567.8215287,6041307.119607906
570.0047927,6041750.433787692
572.2107997,6041279.701096945
574.4398902,6041148.789563027
576.692411,6041750.4402780775
578.9687155,6041933.993249607
581.2691637,6041920.299343115
583.5941226,6040923.761710077
585.943966,6041592.653479284
588.3190752,6041594.839672756
590.7198384999999,6041364.7517344775
593.1466518,6041376.6061056815
595.5999188999999,6041473.933081975
598.0800512,6041668.871369089
600.5874682,6041554.203488378
603.1225977000001,6041615.2960175965
605.6858758999999,6041128.833421483
608.2777476,6041446.050668943
610.8986664,6041455.018089961
613.549095,6041724.21061044
616.2295054,6041275.1609705975
618.940379,6041524.550557436
621.6822068,6039905.885859339
624.4554901,6041711.330278134
627.2607402000001,6039507.64306227
630.0984786,6040458.414288351
632.9692378999999,6041428.038023153
635.8735614,6040307.107504415
638.8120038,6039514.428765592
641.7851312999999,6041379.668712732
644.7935217999999,6038984.059124173
646.2843386,6041751.863863017
647.1313635,6041432.707553772
647.8377654,6041481.922840012
647.980979,6041639.2935286
648.8331985,6041530.901683455
649.6880352999999,6041238.076626463
650.5455028,6041684.580826319
650.9184646000001,6041749.876221158
651.4056144,6041370.302348843
652.2683836,6041758.53502382
653.1338237000001,6041033.48180772
654.0019482999999,6041398.277759437
654.8727708,6041174.869245926
655.7463047,6041098.4605098935
656.6225636,6041247.998199501
657.501561,6041213.102491157
658.3833105,6041675.173506688
659.2678255,6041354.862794315
660.1551197000001,6041644.441429223
661.0452068,6041939.220913758
661.9381002,6041391.46357243
662.8338137000001,6041566.783747729
663.7323607999999,6041506.331844827
664.6337553,6041395.154352518
665.5380107000001,6041174.928814688
666.4451407,6041789.567108886
667.355159,6041768.990847449
668.2680793,6041025.600701578
669.1839152000001,6041878.621230503
670.1026805,6041536.203329182
671.0243889,6041817.049782247
671.949054,6041288.980459927
672.8766895,6041271.116313018
673.8073092,6041228.570076198
674.7409267,6041021.87285016
675.6775557999999,6041509.762488304
676.6172101,6041406.773123708
677.5599033,6041372.668337625
678.5056492000001,6041317.116322317
679.4544612999999,6041289.512202607
680.4063535,6041134.786884902
681.3613392999999,6041533.216924714
682.3194324,6041266.774412323
683.2806465,6041136.6792547135
684.2449952000001,6041656.735559247
685.2124921,6041453.935218197
686.1831509,6041477.807051958
687.1569850999999,6041447.407197123
688.1340083,6040951.0301357685
689.1142341,6041551.977994118
690.097676,6041295.175980351
691.0843474999999,6041496.867909148
692.0742622,6041330.458684293
693.0674334,6041360.913656178
694.0638748,6041843.168072684
695.0635996,6041188.541090461
696.0666212,6041507.856637272
697.0729531000001,6041130.160638803
698.0826086,6041226.637563645
699.0956008999999,6041517.02129734
700.1119432999999,6041433.962947777
701.1316491,6041447.719601933
702.1547314,6041815.003225118
703.1812034,6040981.717873668
704.2110782000001,6040967.6351438975
705.2443688999999,6041738.733177078
706.2810885,6041548.596795866
707.3212499,6041271.804002987
708.3648661000001,6041728.899340636
709.41195,6041584.068917628
710.4625143999999,6041240.915375478
711.5165721,6041437.214353087
712.5741357,6041658.888258887
713.6352181,6041853.817453749
714.6998317000001,6041671.885354993
715.7679891,6041130.504671548
716.8397027999999,6041436.080231153
717.9149852,6041318.773342314
718.9938487000001,6041110.558645267
720.0763055,6041722.756696959
721.162368,6041509.564044408
722.2520481,6041873.071762422
723.3453581,6041526.665576748
724.4423098,6041324.880358534
725.5429153,6041484.095598589
726.6471863,6041026.719533288
727.7551346,6041408.608434394
728.866772,6041784.03417271
729.9821099,6041725.843732835
731.1011599,6041513.788835146
732.2239335,6041210.168393136
733.3504419,6041645.331585477
734.4806963999999,6040885.036336835
735.6147081,6041689.546074187
736.7524882,6041305.1218696935
737.8940474,6041200.265325408
739.0393967,6041800.426085106
740.1885467999999,6041282.587589228
741.3415084,6041523.938211418
742.498292,6041349.3987891525
743.658908,6041682.543470183
744.8233667999999,6041026.177558086
745.9916785,6041609.620689474
747.1638532000001,6041236.894622227
748.3399009,6041267.287163357
749.5198315,6040997.277771267
750.7036546,6041894.717999257
751.89138,6041019.960727064
753.0830171,6041294.731642417
754.2785752999999,6041196.609560045
755.4780638,6040896.320479778
756.6814917,6041697.931365322
757.8888678999999,6041314.892698192
759.1002014999999,6041291.76002809
760.3155009,6041289.917748722
761.5347749,6036780.657062923
762.7580318,6023964.05980649
763.98528,5997712.657800937
765.2165276000001,5955951.308974412
766.4517825,5895347.040713949
767.6910527000001,5813382.031961722
768.9343458999999,5705559.672415217
770.1816697,5569875.59638177
771.4330313999999,5410181.127787641
772.6884382999999,5231843.763107789
773.9478975,5039085.463048446
775.211416,4832980.524139859
776.4790005,4616379.994471286
777.7506578,4391418.445752092
779.0263942,4162201.13336868
780.3062162,3932472.826492075
781.5901297,3704004.682353642
782.8781409,3478031.841765556
784.1702554999999,3257889.636634962
785.4664793,3047456.7490209923
786.7668176,2849790.805837604
788.0712758,2667880.449633716
789.3798591,2503522.8423466543
790.6925722999999,2356380.8811159288
792.0094204,2226130.71682236
793.3304079,2110622.710441304
794.6555392000001,2007214.1856742024
795.9848187000001,1913150.76315576
797.3182504,1825846.586434492
798.6558382999999,1742977.564362195
799.9975861,1663641.2775876955
801.3434973,1585741.904297726
802.6935752999999,1510419.1496726065
804.0478232999999,1437564.072187647
805.4062443,1367628.7720231244
806.7688411,1301695.3845820487
808.1356164,1240120.060906805
809.5065726,1183657.899297768
810.881712,1132334.1536698125
812.2610367000001,1085876.9113334347
813.6445485,1043587.3167137622
815.0322493,1004697.6743276272
816.4241404,968409.006576656
817.8202233,933318.2401410504
819.2204991,899116.5702209264
820.6249687999999,864897.1098753907
822.0336331,830232.955694159
823.4464925999999,794968.3611602952
824.8635477000001,759564.773113662
826.2847987,724118.5188902372
827.7102456,689123.515936417
829.1398882,655092.694732433
830.5737261,622111.7128145909
832.0117589,590517.13129382
833.4539857000001,560695.1867076791
834.9004057999999,532372.5912337779
836.3510179,505560.8878744025
837.8058209,479851.1261874744
839.2648132999999,455164.5877465536
840.7279934000001,431060.8606945975
842.1953594,407389.4142823333
843.6669092,384107.6578465593
845.1426408,361062.00322486064
846.6225517000001,338163.1508206549
848.1066392999999,315524.3289994862
849.5949009999999,293031.8247583148
851.0873337999999,271018.12152723875
852.5839347000001,249467.1316309073
854.0847002999999,228473.33789758905
855.5896273,208273.924826504
857.0987119999999,188741.7572744613
858.6119507000001,170146.76381401625
860.1293393999999,152510.40892807208
861.650874,136164.089540954
863.1765502000001,120960.25721488072
864.7063635,107014.17990464352
866.2403094,94338.80468785512
867.778383,82941.22315808732
869.3205793999999,72875.05904464095
870.8668935000001,63972.42718596479
872.4173199999999,56125.52867552271
873.9718536,49276.025414478776
875.5304886,43293.759152407234
877.0932193,38158.80559640124
878.6600399,33686.803771548395
880.2309443,29739.35129457298
881.8059264000001,26120.05528725268
883.3849798,22804.046260033087
884.9680981,19749.757825731333
886.5552747000002,16862.142316048292
888.1465029,14146.787363960331
889.7417757000001,11569.155556185571
891.3410862,9090.57184702946
892.9444273,6825.763449366958
894.5517916000001,4938.185893382236
896.1631719000001,3421.853088742012
897.7785605,2209.524925941165
899.3979498,1303.306992236457
901.0213321,660.9184241964713
902.6486995,256.61736409407644
904.280044,73.1600683633893
905.9153575,34.8168960149347
907.5546319,13.697765457150387
909.1978586,4.806466342541204
910.8450295,-3.375389010866936
912.4961358,-1.945838213316483
914.1511691,2.143651113792037
915.8101205,-5.588724546315235
917.4729813,-0.0847166052511163
919.1397426,-3.16334733574574
920.8103953,0.4415389257802514
922.4849303,4.762325317972104
924.1633386,0.3367390488550703
925.8456109,-2.954393976771409
927.5317378,1.1213101835771502
929.22171,-1.1784167152442042
930.9155179,-0.1959820145603092
932.6131521,2.623685655736
934.3146028,3.508808964553748
936.0198606,-1.4092467872262948
937.7289155,3.357051064217856
939.4417579,-0.1433549982058296
941.1583779,3.4924909085186995
942.8787656,1.7552833197681612
944.6029109,1.0438529115219704
946.3308041,1.61116527028671
948.0624349,-1.6406580822307812
949.7977933,0.0303627546615611
951.5368692,1.0054468414848572
953.2796523,2.8825024563870287
955.0261327,2.038386217692225
956.7762999,-0.9961022088620024
958.5301437,0.3059147389799099
960.2876539,-0.9832630871108788
962.0488201,-2.0465408019560334
963.813632,-3.145091001415989
965.5820793,-1.6500203217407448
967.3541517,-3.931627784697047
969.1298386,2.105018682888055
970.9091298,1.7033514814049606
972.6920149,-2.722886210281976
974.4784835,-0.4818640940231268
976.2685251,-0.3512474515183997
978.0621293,-4.374340339645181
979.8592859,-0.1795326001418748
981.6599843,1.1326973448076738
983.4642142,-1.3699780389486216
985.2719651,1.4194941617328218
987.0832269,-2.0340671427426784
988.897989,0.5951808195257647
990.7162412,0.8251880571268331
992.5379731,0.5697323218961414
994.3631745,-0.1305353913543167
996.191835,-2.5234487474089846
998.0239445,-1.4046168974828863
999.8594926,-1.721517714247634
1001.698469,0.1940873766338494
1003.540864,-2.4828015120146354
1005.386668,-0.2560380296789093
1007.235869,-1.0135027700346122
1009.088458,-1.3882057339090028
1010.944426,-1.4595044843212577
1012.803762,2.695458672122457
1014.666456,-1.7623914860927488
1016.532498,3.563393467847685
1018.401878,0.1326549887647255
1020.274588,2.036567084308109
1022.150616,-4.73185969603898
1024.029953,-1.7019446622146523
