wave,flux
306.2504509,471.41633507949166
306.5604242,665.659143742135
306.871524,885.9568901297749
307.18375710000004,1145.590169852743
307.4971302,1435.9971275420685
307.8116501,1770.7805531809713
308.1273236,1916.1650738811404
308.4441577,2067.772137761607
308.7621594,2237.25912753191
309.0813356,2408.04708404266
309.4016935,2589.7455705279635
309.7232403,2769.73571282946
310.04598300000004,2953.1620179502925
310.369929,3131.342340054269
310.6950856,3314.075544722765
311.0214601,3491.6991542969304
311.34906010000003,3668.364853175029
311.6778931,3855.393240636592
312.0079665,4055.104626519114
312.33928810000003,4254.1732524458885
312.6718655,4468.474209100011
313.00570639999995,4698.810316994287
313.3408189,4972.826567486983
313.6772106,5267.249194841328
314.0148896,5606.057055493902
314.3538639,5977.831594965754
314.6941415,6384.938000662874
315.0357308,6821.437876165638
315.37863980000003,7292.256748868765
315.7228769,7784.649676314437
316.0684504,8286.1927186744
316.4153688,8782.371315076729
316.76364069999994,9254.131883392947
317.1132746,9725.138251292832
317.4642791,10181.569368965154
317.8166631,10640.951424104014
318.1704352,11084.037468535793
318.5256045,11542.62532651832
318.8821799,11986.538584970098
319.2401704,12458.604638156943
319.5995851,12950.4823949443
319.96043330000003,13465.315123749537
320.3227243,14006.178008291025
320.6864673,14552.628738510615
321.0516719,15127.59110371965
321.4183476,15718.912901740485
321.786504,16299.94996842972
322.1561508,16918.62524483387
322.5272977,17551.495705676054
322.8999548,18226.48458086872
323.2741319,18921.990797911632
323.649839,19662.176784661584
324.0270864,20481.947498119844
324.40588419999995,21377.82152418093
324.7862428,22386.49728597377
325.16817260000005,23513.56337535197
325.5516841,24848.557876712806
325.9367879,26318.655887944
326.32349480000005,28059.134507098403
326.7118154,30025.722429851947
327.1017607,32363.36302545817
327.4933418,35103.61256257146
327.88656960000003,38271.863121693976
328.2814555,41927.29415806285
328.6780106,46124.053399690674
329.0762465,50841.99852225153
329.47617460000004,56147.24666269133
329.8778065,61956.96714222255
330.281154,68272.8119048394
330.6862289,74953.86126766066
331.0930432,81972.38681549676
331.5016088,89161.39204377668
331.911938,96425.7115157182
332.32404310000004,103593.03190970264
332.7379364,110646.91834228468
333.1536305,117467.802001823
333.571138,124083.8068228454
333.9904716,130488.54701561158
334.4116443,136794.7593383693
334.834669,143166.49487733498
335.2595588,149539.6820588308
335.686327,156344.28319217768
336.114987,163614.69804762982
336.5455522,171487.51436864448
336.9780363,180233.8135245873
337.41245310000005,189778.9359345697
337.8488164,200271.42737192815
338.28714019999995,211670.6888876033
338.7274388,223928.3192796244
339.1697264,236968.2544379568
339.6140175,250799.2199326269
340.06032660000005,265200.2594855275
340.5086685,280310.676786871
340.959058,296188.3319133836
341.4115102,312886.38211169664
341.8660403,330669.0477336553
342.32266339999995,349503.52821441274
342.7813952,369680.1522340524
343.24225110000003,391242.0062592072
343.70524710000007,414013.0054325755
344.17039889999995,437897.2211943817
344.6377228,462425.7026875058
345.1072349,487224.377909096
345.5789517,511581.7767151794
346.0528897,534902.9558882071
346.5290657,556606.2758830353
347.0074967,576251.2123330167
347.48819960000003,593620.1534604268
347.9711917,608813.7566430204
348.45649060000005,622250.402412934
348.9441137,634622.7404152737
349.434079,646673.7795085764
349.9264043,659789.899704885
350.4211078,675234.6699688039
350.9182079,694197.2492608342
351.4177232,717678.6019597887
351.9196722,746235.2249827323
352.42407410000004,780523.7663790705
352.9309478,820104.4421594347
353.4403127,864148.8774678691
353.95218839999995,911306.032354144
354.4665945,959908.140582291
354.983551,1008105.6047453784
355.503078,1053332.448210743
356.025196,1093802.66296706
356.5499253,1127358.792778851
357.077287,1152880.241975019
357.6073018,1169673.0248545257
358.1399912,1177708.6457036429
358.6753765,1177651.3370951803
359.2134795,1170640.9169157154
359.754322,1158568.277107937
360.2979263,1143054.2980432531
360.8443147,1125934.9842111997
361.3935098,1108907.410675445
361.9455346,1092460.5470145356
362.5004122,1077508.685026968
363.058166,1064052.078494767
363.61881960000005,1051345.2491166794
364.1823969,1039002.846046706
364.7489221,1025856.7515368344
365.3184196,1011439.202373588
365.8909141,994917.9472824528
366.4664305,976308.9887494084
367.0449943,955588.0028190856
367.6266307,932925.444557225
368.2113658,909231.9002871778
368.7992255,885240.0899393186
369.3902363,861513.8904706708
369.9844249,838729.4273165836
370.5818182,817712.6314084799
371.1824436,798347.8507425326
371.7863286000001,781356.5423456094
372.3935012,766444.8511726579
373.0039896,753845.9539503191
373.6178223,743811.8750506431
374.2350283,736245.6635869973
374.8556368,731726.9412053395
375.4796772,730919.1997414107
376.1071796,733875.8010573778
376.7381741,741330.3952975619
377.3726913,753510.7380193677
378.0107622,770710.3508787791
378.652418,792432.3715874327
379.2976904,817869.1376702171
379.9466115,846257.671908326
380.5992136,876158.0994010924
381.2555296,906106.0750261128
381.9155926,934281.3379782292
382.5794362,960108.94037173
383.2470943,981835.3630728192
383.9186014,999526.9358962744
384.5939922,1013401.0113738708
385.2733019,1024164.729501763
385.9565661,1032965.2421341676
386.6438209,1041784.6650231744
387.3351027,1051978.7050097028
388.0304484,1065895.9767490216
388.7298955,1085002.8933218785
389.4334817,1110880.4756074054
390.1412452,1144544.827506605
390.853225,1186615.663426511
391.56946,1237639.7840005052
392.2899901,1297443.493596447
393.0148555,1365982.8700123746
393.7440968,1443465.5227509537
394.4777551,1529743.931457697
395.2158722,1625480.2738390858
395.9584903,1730783.615665637
396.7056521,1846075.0421958768
397.457401,1972000.9691278213
398.2137806,2108160.710953552
398.9748353,2253331.94706388
399.7406101,2405802.531013852
400.5111505,2562699.3302557254
401.2865024,2719084.0540031497
402.0667126,2870127.2998240483
402.8518283,3010500.354829107
403.6418973,3134102.1673624017
404.436968,3236654.736526124
405.2370896,3314675.997597092
406.0423117,3367214.5423467457
406.8526847,3396022.357247916
407.66825960000006,3405442.679134753
408.4890879,3402721.9857414505
409.3152221,3396036.270540472
410.1467152,3395201.965766905
410.9836208,3410217.1727013662
411.8259934,3449581.978072416
412.673888,3519921.594024903
413.5273605,3625211.0253514927
414.38646760000006,3766828.103532226
415.2512664,3942137.6605482167
416.1218152,4144206.994868083
416.9981727,4367127.548504438
417.8803987,4601373.186376825
418.7685535,4836602.49801723
419.6626985,5062473.229095012
420.5628957,5271647.548602975
421.4692081,5457881.598346816
422.3816994,5616637.617644711
423.3004343,5741562.674228517
424.2254783,5831200.603455863
425.1568978,5882153.912744754
426.0947602,5897069.756091335
427.0391337,5876343.615567138
427.9900874,5822353.731122604
428.9476917,5737223.308895208
429.9120175,5627162.336973682
430.8831369,5500159.512145588
431.8611232,5370039.079467537
432.8460504,5249188.363108716
433.8379937,5150423.686367287
434.8370293,5085614.143898025
435.8432345,5060630.214980288
436.8566878,5079342.927838218
437.8774686,5139167.657816784
438.9056575,5235112.5339714205
439.9413364,5357079.543356299
440.9845882,5493126.982084913
442.035497,5627420.753812327
443.0941482,5746368.532343881
444.1606283,5845100.401681371
445.23502520000005,5922032.009594066
446.317428,5977549.308513579
447.407927,6014108.481262188
448.5066141,6033588.515005307
449.6135822,6040761.973540696
450.7289258,6041681.378902213
451.85274060000006,6041556.355295794
452.9851239,6041824.978548277
454.1261744,6041255.382350814
455.2759921,6041539.257425606
456.4346788,6041605.460802077
457.6023374,6041057.048781717
458.7790727,6041268.90789158
459.9649909,6041607.434511327
461.1601998,6041014.267211842
462.364809,6041594.026293444
463.5789295,6041727.609361119
464.8026741000001,6041455.514579737
466.0361575,6040902.605934878
467.2794956999999,6041527.25254056
468.5328070000001,6041842.35458289
469.7962111000001,6041732.213183418
471.0698299,6041293.285832684
472.3537868,6041679.535619472
473.6482074,6041312.071762889
474.9532192,6041448.311132433
476.2689517,6042007.528546905
477.5955362,6041480.4818121465
478.93310639999993,6041128.664203525
480.2817979,6041331.531684014
481.6417484,6041302.557015145
483.01309800000007,6041477.158736039
484.3959889,6041801.366593602
485.7905654,6041398.949947964
487.1969743,6041710.562788345
488.6153648,6041343.538030686
490.0458884,6041744.942694245
491.488699,6041445.829689841
492.943953,6041013.447511433
494.4118094,6041457.1145472
495.8924299,6041371.116561816
497.3859785,6041700.051662545
498.8926222,6041485.681097183
500.4125306,6041158.390142092
501.9458762,6041385.277387423
503.4928341,6041238.88354396
505.0535827,6041412.086451861
506.628303,6041390.66432734
508.2171791999999,6041399.679742076
509.8203986,6041428.763411557
511.4381515,6041320.735702279
513.0706316000001,6041501.737560453
514.7180356,6041224.673038707
516.3805639,6041606.231998915
518.0584200000001,6041259.989215711
519.7518110000001,6041345.316866447
521.4609475999999,6041399.429904155
523.186044,6041440.158403252
524.927318,6041188.561622581
526.6849915,6041324.959566197
528.45929,6041343.817420625
530.2504428000001,6041634.682526457
532.0586836,6041825.911053742
533.8842498,6041436.068054255
535.7273833,6040972.210211793
537.5883299,6041549.031929753
539.46734,6041571.063203593
541.3646685,6040983.92178369
543.2805745000001,6041622.369877591
545.2153222000001,6041675.649501635
547.1691801,6041025.94892725
549.1424218999999,6041262.371788752
551.1353259,6042038.96454154
553.1481756000001,6041555.064209006
555.1812597,6041629.973598061
557.2348721,6041534.048835725
559.3093121,6041609.567151197
561.4048845,6042096.581805745
563.5218996,6041792.427780404
565.6606737000001,6041335.25779669
567.8215287,6041231.343119162
570.0047927,6041644.271792322
572.2107997,6041370.234959283
574.4398902,6041463.180272324
576.692411,6041403.939360709
578.9687155,6041567.668079278
581.2691637,6041497.685742745
583.5941226,6041348.278564104
585.943966,6041631.630786517
588.3190752,6041041.109025086
590.7198384999999,6040840.20652021
593.1466518,6041467.418688293
595.5999188999999,6041456.488455925
598.0800512,6041493.677666449
600.5874682,6041461.691445538
603.1225977000001,6041145.086112822
605.6858758999999,6041141.119167421
608.2777476,6041081.454034602
610.8986664,6041492.176516723
613.549095,6041234.61864816
616.2295054,6041458.193718534
618.940379,6041536.766758549
621.6822068,6041902.322194083
624.4554901,6041626.400725331
627.2607402000001,6039719.053249601
630.0984786,6040338.136064582
632.9692378999999,6043715.249934822
635.8735614,6043298.253602778
638.8120038,6040490.937788944
641.7851312999999,6041456.917635238
644.7935217999999,6041735.3425937565
647.8377654,6040645.162679786
650.9184646000001,6043427.5769359935
654.0362346,6043129.941092785
657.1917038,6041365.361765661
660.3855139,6038245.511924134
663.6183202999999,6043618.458282728
666.8907926,6040546.928541974
670.2036149,6040297.359070493
673.557486,6043390.33126333
676.9531202000001,6041137.408466795
680.4063535,6041134.786884902
681.3613392999999,6041533.216924714
682.3194324,6041266.774412323
683.2806465,6041136.6792547135
684.2449952000001,6041656.735559247
685.2124921,6041453.935218197
686.1831509,6041477.807051958
687.1569850999999,6041447.407197123
688.1340083,6040951.0301357685
689.1142341,6041551.977994118
690.097676,6041295.175980351
691.0843474999999,6041496.867909148
692.0742622,6041330.458684293
693.0674334,6041360.913656178
694.0638748,6041843.168072684
695.0635996,6041188.541090461
696.0666212,6041507.856637272
697.0729531000001,6041130.160638803
698.0826086,6041226.637563645
699.0956008999999,6041517.02129734
700.1119432999999,6041433.962947777
701.1316491,6041447.719601933
702.1547314,6041815.003225118
703.1812034,6040981.717873668
704.2110782000001,6040967.6351438975
705.2443688999999,6041738.733177078
706.2810885,6041548.596795866
707.3212499,6041271.804002987
708.3648661000001,6041728.899340636
709.41195,6041584.068917628
710.4625143999999,6041240.915375478
711.5165721,6041437.214353087
712.5741357,6041658.888258887
713.6352181,6041853.817453749
714.6998317000001,6041671.885354993
715.7679891,6041130.504671548
716.8397027999999,6041436.080231153
717.9149852,6041318.773342314
718.9938487000001,6041110.558645267
720.0763055,6041722.756696959
721.162368,6041509.564044408
722.2520481,6041873.071762422
723.3453581,6041526.665576748
724.4423098,6041324.880358534
725.5429153,6041484.095598589
726.6471863,6041026.719533288
727.7551346,6041408.608434394
728.866772,6041784.03417271
729.9821099,6041725.843732835
731.1011599,6041513.788835146
732.2239335,6041210.168393136
733.3504419,6041645.331585477
734.4806963999999,6040885.036336835
735.6147081,6041689.546074187
736.7524882,6041305.1218696935
737.8940474,6041200.265325408
739.0393967,6041800.426085106
740.1885467999999,6041282.587589228
741.3415084,6041523.938211418
742.498292,6041349.3987891525
743.658908,6041682.543470183
744.8233667999999,6041026.177558086
745.9916785,6041609.620689474
747.1638532000001,6041236.894622227
748.3399009,6041267.287163357
749.5198315,6040997.277771267
750.7036546,6041894.717999257
751.89138,6041019.960727064
753.0830171,6041294.731642417
754.2785752999999,6041196.609560045
755.4780638,6040896.320479778
756.6814917,6041697.931365322
757.8888678999999,6041314.892698192
759.1002014999999,6041291.76002809
760.3155009,6041289.917748722
761.5347749,6036780.657062923
762.7580318,6023964.05980649
763.98528,5997712.657800937
765.2165276000001,5955951.308974412
766.4517825,5895347.040713949
767.6910527000001,5813382.031961722
768.9343458999999,5705559.672415217
770.1816697,5569875.59638177
771.4330313999999,5410181.127787641
772.6884382999999,5231843.763107789
773.9478975,5039085.463048446
775.211416,4832980.524139859
776.4790005,4616379.994471286
777.7506578,4391418.445752092
779.0263942,4162201.13336868
780.3062162,3932472.826492075
781.5901297,3704004.682353642
782.8781409,3478031.841765556
784.1702554999999,3257889.636634962
785.4664793,3047456.7490209923
786.7668176,2849790.805837604
788.0712758,2667880.449633716
789.3798591,2503522.8423466543
790.6925722999999,2356380.8811159288
792.0094204,2226130.71682236
793.3304079,2110622.710441304
794.6555392000001,2007214.1856742024
795.9848187000001,1913150.76315576
797.3182504,1825846.586434492
798.6558382999999,1742977.564362195
799.9975861,1663641.2775876955
801.3434973,1585741.904297726
802.6935752999999,1510419.1496726065
804.0478232999999,1437564.072187647
805.4062443,1367628.7720231244
806.7688411,1301695.3845820487
808.1356164,1240120.060906805
809.5065726,1183657.899297768
810.881712,1132334.1536698125
812.2610367000001,1085876.9113334347
813.6445485,1043587.3167137622
815.0322493,1004697.6743276272
816.4241404,968409.006576656
817.8202233,933318.2401410504
819.2204991,899116.5702209264
820.6249687999999,864897.1098753907
822.0336331,830232.955694159
823.4464925999999,794968.3611602952
824.8635477000001,759564.773113662
826.2847987,724118.5188902372
827.7102456,689123.515936417
829.1398882,655092.694732433
830.5737261,622111.7128145909
832.0117589,590517.13129382
833.4539857000001,560695.1867076791
834.9004057999999,532372.5912337779
836.3510179,505560.8878744025
837.8058209,479851.1261874744
839.2648132999999,455164.5877465536
840.7279934000001,431060.8606945975
842.1953594,407389.4142823333
843.6669092,384107.6578465593
845.1426408,361062.00322486064
846.6225517000001,338163.1508206549
848.1066392999999,315524.3289994862
849.5949009999999,293031.8247583148
851.0873337999999,271018.12152723875
852.5839347000001,249467.1316309073
854.0847002999999,228473.33789758905
855.5896273,208273.924826504
857.0987119999999,188741.7572744613
858.6119507000001,170146.76381401625
860.1293393999999,152510.40892807208
861.650874,136164.089540954
863.1765502000001,120960.25721488072
864.7063635,107014.17990464352
866.2403094,94338.80468785512
867.778383,82941.22315808732
869.3205793999999,72875.05904464095
870.8668935000001,63972.42718596479
872.4173199999999,56125.52867552271
873.9718536,49276.025414478776
875.5304886,43293.759152407234
877.0932193,38158.80559640124
878.6600399,33686.803771548395
880.2309443,29739.35129457298
881.8059264000001,26120.05528725268
883.3849798,22804.046260033087
884.9680981,19749.757825731333
886.5552747000002,16862.142316048292
888.1465029,14146.787363960331
889.7417757000001,11569.155556185571
891.3410862,9090.57184702946
892.9444273,6825.763449366958
894.5517916000001,4938.185893382236
896.1631719000001,3421.853088742012
897.7785605,2209.524925941165
899.3979498,1303.306992236457
901.0213321,660.9184241964713
902.6486995,256.61736409407644
904.280044,73.1600683633893
905.9153575,34.8168960149347
907.5546319,13.697765457150387
909.1978586,4.806466342541204
910.8450295,-3.375389010866936
912.4961358,-1.945838213316483
914.1511691,2.143651113792037
915.8101205,-5.588724546315235
917.4729813,-0.0847166052511163
919.1397426,-3.16334733574574
920.8103953,0.4415389257802514
922.4849303,4.762325317972104
924.1633386,0.3367390488550703
925.8456109,-2.954393976771409
927.5317378,1.1213101835771502
929.22171,-1.1784167152442042
930.9155179,-0.1959820145603092
932.6131521,2.623685655736
934.3146028,3.508808964553748
936.0198606,-1.4092467872262948
937.7289155,3.357051064217856
939.4417579,-0.1433549982058296
941.1583779,3.4924909085186995
942.8787656,1.7552833197681612
944.6029109,1.0438529115219704
946.3308041,1.61116527028671
948.0624349,-1.6406580822307812
949.7977933,0.0303627546615611
951.5368692,1.0054468414848572
953.2796523,2.8825024563870287
955.0261327,2.038386217692225
956.7762999,-0.9961022088620024
958.5301437,0.3059147389799099
960.2876539,-0.9832630871108788
962.0488201,-2.0465408019560334
963.813632,-3.145091001415989
965.5820793,-1.6500203217407448
967.3541517,-3.931627784697047
969.1298386,2.105018682888055
970.9091298,1.7033514814049606
972.6920149,-2.722886210281976
974.4784835,-0.4818640940231268
976.2685251,-0.3512474515183997
978.0621293,-4.374340339645181
979.8592859,-0.1795326001418748
981.6599843,1.1326973448076738
983.4642142,-1.3699780389486216
985.2719651,1.4194941617328218
987.0832269,-2.0340671427426784
988.897989,0.5951808195257647
990.7162412,0.8251880571268331
992.5379731,0.5697323218961414
994.3631745,-0.1305353913543167
996.191835,-2.5234487474089846
998.0239445,-1.4046168974828863
999.8594926,-1.721517714247634
1001.698469,0.1940873766338494
1003.540864,-2.4828015120146354
1005.386668,-0.2560380296789093
1007.235869,-1.0135027700346122
1009.088458,-1.3882057339090028
1010.944426,-1.4595044843212577
1012.803762,2.695458672122457
1014.666456,-1.7623914860927488
1016.532498,3.563393467847685
1018.401878,0.1326549887647255
1020.274588,2.036567084308109
1022.150616,-4.73185969603898
1024.029953,-1.7019446622146523
1025.912591,-1.3569396311604591
1027.798518,-1.7565954216705633
1029.687726,-0.98573078831702
1031.580205,0.4841937252135517
1033.475945,0.8186167813122637
1035.3749380000002,2.5893260434548018
1037.277175,1.538102537464364
1039.182645,-2.0127188922791954
1041.09134,2.6250894347966467
1043.003251,0.2137404881779373
1044.918368,-0.0573575810121391
1046.836683,0.7728066703273068
1048.758188,3.079024708981095
1050.682872,1.7863592040068756
1052.610728,-0.9875552316154448
1054.541747,0.8450681541709223
1056.4759210000002,0.5606905164531844
1058.41324,2.214747155831732
1060.353697,-0.1533507103623259
1062.297282,-3.1936625878301363
1064.243989,-6.004355355014276
1066.193809,1.6975392031795646
1068.146734,-1.8391697537208151
1070.102755,-1.0996296138543131
1072.061865,0.8926713113443641
1074.024056,2.2107648134886464
1075.989321,-2.4650492132498067
1077.957651,0.1139664012951578
1079.92904,-0.1832930190834896
