wave,flux
306.2504509,563.6149003601581
306.5604242,768.2021883015822
306.871524,993.1755060330976
307.18375710000004,1230.7320673362358
307.4971302,1478.6427503571813
307.8116501,1755.2223222981854
308.1273236,1821.471815880116
308.4441577,1884.9152087721268
308.7621594,1957.6426915812349
309.0813356,2037.6103367638043
309.4016935,2109.0841596654773
309.7232403,2192.857999889368
310.04598300000004,2274.2351671970223
310.369929,2359.025521940382
310.6950856,2439.202848367716
311.0214601,2529.4112491020514
311.34906010000003,2619.941105288716
311.6778931,2713.5391679872564
312.0079665,2816.179426325397
312.33928810000003,2921.706539413096
312.6718655,3043.2968954789485
313.00570639999995,3174.5269960681603
313.3408189,3311.36844113098
313.6772106,3465.4700226757222
314.0148896,3626.3296601753145
314.3538639,3792.3660908273273
314.6941415,3982.308284463111
315.0357308,4168.306731289933
315.37863980000003,4360.7169849275415
315.7228769,4556.244328967627
316.0684504,4761.888360541468
316.4153688,4968.681316986652
316.76364069999994,5185.68688361974
317.1132746,5402.1207819028605
317.4642791,5628.735260265306
317.8166631,5856.9712933511255
318.1704352,6090.143098933921
318.5256045,6312.357177360756
318.8821799,6537.269147124787
319.2401704,6759.88149147978
319.5995851,6986.281689855129
319.96043330000003,7205.4955602569335
320.3227243,7413.590406270014
320.6864673,7627.240986931852
321.0516719,7833.400777403077
321.4183476,8041.209740118693
321.786504,8254.997023865784
322.1561508,8483.240153067729
322.5272977,8733.292047514655
322.8999548,9037.115965161487
323.2741319,9362.075733196509
323.649839,9756.109353320691
324.0270864,10250.399983805037
324.40588419999995,10861.351259328783
324.7862428,11649.531957071154
325.16817260000005,12652.463548645705
325.5516841,13868.759199799048
325.9367879,15449.849389499732
326.32349480000005,17436.93601554504
326.7118154,19859.69137753048
327.1017607,22851.866208002542
327.4933418,26502.16095172773
327.88656960000003,30884.668040752887
328.2814555,36065.40779079239
328.6780106,42098.684122548046
329.0762465,49059.107766796624
329.47617460000004,56878.75797110659
329.8778065,65560.68783948463
330.281154,75013.83350485963
330.6862289,85073.80505030375
331.0930432,95589.54054946222
331.5016088,106348.93287827494
331.911938,117042.30303224994
332.32404310000004,127537.85647944135
332.7379364,137435.25103542695
333.1536305,146696.1573993871
333.571138,154935.24634955314
333.9904716,162198.86714610006
334.4116443,168403.22786787606
334.834669,173697.66391879946
335.2595588,178075.43642628109
335.686327,181661.76522535385
336.114987,184651.494425842
336.5455522,187099.04107552103
336.9780363,189070.4248912085
337.41245310000005,190528.69673247915
337.8488164,191397.00455835648
338.28714019999995,191572.07571359436
338.7274388,190841.802758415
339.1697264,189163.72751391647
339.6140175,186411.3076167715
340.06032660000005,182666.0715372968
340.5086685,177919.14970604496
340.959058,172522.06560336688
341.4115102,166683.43300608167
341.8660403,160816.4787071793
342.32266339999995,155215.0906569325
342.7813952,150361.39928550608
343.24225110000003,146499.8095556701
343.70524710000007,143867.84122830257
344.17039889999995,142596.33159464275
344.6377228,142616.7438749273
345.1072349,143793.9893578784
345.5789517,145945.1719005382
346.0528897,148868.15151835626
346.5290657,152208.8637429387
347.0074967,155671.55597247198
347.48819960000003,159092.78836800365
347.9711917,162252.05988218662
348.45649060000005,165138.7750614759
348.9441137,167700.7560809383
349.434079,169998.7486818936
349.9264043,172219.03610800975
350.4211078,174404.33054050428
350.9182079,176673.60358114552
351.4177232,179138.13559884863
351.9196722,181757.5156508556
352.42407410000004,184457.09728162384
352.9309478,187102.4987389547
353.4403127,189356.11090299
353.95218839999995,191118.25477321763
354.4665945,192092.9919549161
354.983551,192011.51074963555
355.503078,190695.0718913004
356.025196,188228.7462551603
356.5499253,184564.53201554625
357.077287,179873.24915628173
357.6073018,174459.7541844076
358.1399912,168609.99377036036
358.6753765,162698.95246367258
359.2134795,156963.61161705374
359.754322,151822.82636224304
360.2979263,147413.94482034675
360.8443147,143864.77940437823
361.3935098,141312.9268894867
361.9455346,139594.22867962028
362.5004122,138776.70289220955
363.058166,138748.59640729005
363.61881960000005,139404.43257779925
364.1823969,140658.69329708506
364.7489221,142541.60320499435
365.3184196,145043.89880818062
365.8909141,148267.2701819102
366.4664305,152212.3291492893
367.0449943,157046.8127250332
367.6266307,162810.029517046
368.2113658,169548.47130926198
368.7992255,177215.92729180685
369.3902363,185739.9039081524
369.9844249,194849.53346115103
370.5818182,204406.5631153416
371.1824436,214066.16323344567
371.7863286000001,223571.269908748
372.3935012,232734.5490341841
373.0039896,241319.83196414905
373.6178223,249244.62396721184
374.2350283,256384.31551863608
374.8556368,263002.04152155505
375.4796772,269195.0877008485
376.1071796,274985.96722587984
376.7381741,280816.6799456711
377.3726913,286685.6411261721
378.0107622,292840.77718542155
378.652418,299209.66392800823
379.2976904,305994.4075171632
379.9466115,313116.4792298308
380.5992136,320531.5037040533
381.2555296,328341.0328934613
381.9155926,336480.3079080618
382.5794362,345076.4918530861
383.2470943,354372.95397122327
383.9186014,364516.9020050171
384.5939922,375737.0377567112
385.2733019,388276.52757876593
385.9565661,402257.8874747268
386.6438209,417860.5792566525
387.3351027,434975.3569327011
388.0304484,453968.3210306664
388.7298955,474353.5824221424
389.4334817,496080.3916888645
390.1412452,520123.6228276449
390.853225,546345.7277399778
391.56946,574461.4660146579
392.2899901,604784.1793141209
393.0148555,637152.7090623997
393.7440968,671160.4163810485
394.4777551,707102.6060140845
395.2158722,745285.6425139415
395.9584903,783298.8253931695
396.7056521,821306.016657887
397.457401,859402.581085765
398.2137806,897201.8175103845
398.9748353,934667.705808162
399.7406101,971708.3927224716
400.5111505,1007977.0786361386
401.2865024,1042755.6569770715
402.0667126,1076980.9211505663
402.8518283,1110169.0474173662
403.6418973,1141769.6711194618
404.436968,1171730.93340845
405.2370896,1199644.163341292
406.0423117,1225462.563632467
406.8526847,1249374.0621183673
407.66825960000006,1271634.3974948523
408.4890879,1293417.929500259
409.3152221,1314781.4897426849
410.1467152,1337442.799788874
410.9836208,1362415.063141666
411.8259934,1391047.2721673588
412.673888,1424502.806584608
413.5273605,1463527.261481901
414.38646760000006,1508405.546200295
415.2512664,1559062.7458319168
416.1218152,1614468.8909669332
416.9981727,1672917.9474337716
417.8803987,1732427.763785662
418.7685535,1790674.68424077
419.6626985,1845570.4906551165
420.5628957,1894794.670482343
421.4692081,1937392.8234209935
422.3816994,1972920.5065451337
423.3004343,2001295.0573294887
424.2254783,2023953.053166377
425.1568978,2042619.5903885232
426.0947602,2059906.073092849
427.0391337,2077040.4361663223
427.9900874,2095989.014875136
428.9476917,2117595.836166764
429.9120175,2142372.504996236
430.8831369,2169930.413764172
431.8611232,2199362.307995816
432.8460504,2229732.9498278336
433.8379937,2259703.8327041683
434.8370293,2288664.9480725927
435.8432345,2316572.9205447896
436.8566878,2343417.149802689
437.8774686,2369713.884322829
438.9056575,2397093.5348389647
439.9413364,2426036.5745766982
440.9845882,2456838.358519992
442.035497,2491500.119972244
443.0941482,2529958.8210696774
444.1606283,2572298.8544983743
445.23502520000005,2619221.4841834903
446.317428,2670959.5481609683
447.407927,2727999.0533898515
448.5066141,2790399.975554633
449.6135822,2858859.066776685
450.7289258,2934676.0714070555
451.85274060000006,3019308.9179084124
452.9851239,3116094.097216336
454.1261744,3228782.1734227664
455.2759921,3360577.280382191
456.4346788,3512758.585735025
457.6023374,3686830.956104105
458.7790727,3883258.8553480254
459.9649909,4100436.600479288
461.1601998,4336213.273148494
462.364809,4582004.547064615
463.5789295,4825558.51673904
464.8026741000001,5059191.043391692
466.0361575,5275611.178649128
467.2794956999999,5469171.22837064
468.5328070000001,5633627.548576515
469.7962111000001,5766585.780585296
471.0698299,5865561.764047908
472.3537868,5935661.001786917
473.6482074,5983341.89047496
474.9532192,6013484.15811793
476.2689517,6030724.073068536
477.5955362,6038686.142284553
478.93310639999993,6041719.753660318
480.2817979,6041313.416014613
481.6417484,6040975.081136067
483.01309800000007,6041160.5378719
484.3959889,6041208.520087683
485.7905654,6041534.630403832
487.1969743,6041433.50873545
488.6153648,6041750.35895634
490.0458884,6041482.204808136
491.488699,6041171.110854957
492.943953,6041442.405039144
494.4118094,6041276.14142396
495.8924299,6041425.875916705
497.3859785,6041754.0742726335
498.8926222,6041389.954049045
500.4125306,6041240.285152173
501.9458762,6041487.935581287
503.4928341,6041182.65180339
505.0535827,6041272.373903807
506.628303,6041729.70767897
508.2171791999999,6041215.089236784
509.8203986,6041434.588753258
511.4381515,6041570.678393657
513.0706316000001,6041838.691873459
514.7180356,6041540.299658095
516.3805639,6041372.256942568
518.0584200000001,6041957.219565274
519.7518110000001,6041807.282617895
521.4609475999999,6041649.63729912
523.186044,6041389.135874908
524.927318,6040908.994261776
526.6849915,6041255.889602997
528.45929,6041289.646382401
530.2504428000001,6041127.887679597
532.0586836,6041330.067220791
533.8842498,6041385.059485638
535.7273833,6041436.580997543
537.5883299,6041028.452437783
539.46734,6041177.55489066
541.3646685,6041550.781135137
543.2805745000001,6041853.975495118
545.2153222000001,6041179.608482481
547.1691801,6041602.924113887
549.1424218999999,6041202.452581093
551.1353259,6041654.539319501
553.1481756000001,6041649.852009175
555.1812597,6041233.395357927
557.2348721,6041438.4182377625
559.3093121,6041633.263925121
561.4048845,6042023.970658095
563.5218996,6041456.39972613
565.6606737000001,6041408.170503104
567.8215287,6041021.462962218
570.0047927,6041191.679014293
572.2107997,6041943.617667745
574.4398902,6041366.478418916
576.692411,6041222.078620774
578.9687155,6041147.28426899
581.2691637,6041208.1268305
583.5941226,6041688.125903534
585.943966,6041937.984738492
588.3190752,6041582.807683623
590.7198384999999,6041668.078465524
593.1466518,6041776.114223743
595.5999188999999,6041465.016173772
598.0800512,6041149.112460955
600.5874682,6041279.070538973
603.1225977000001,6041231.774444095
605.6858758999999,6041199.286281548
608.2777476,6041763.128724483
610.8986664,6041254.000560963
613.549095,6041777.573765025
616.2295054,6040948.436738325
618.940379,6040429.5673369365
621.6822068,6040727.826786785
624.4554901,6041409.30757435
627.2607402000001,6041295.3215666935
630.0984786,6042026.430883029
632.9692378999999,6042139.030653548
635.8735614,6043068.769841569
638.8120038,6040940.764161194
641.7851312999999,6042083.439158727
644.7935217999999,6041548.756631136
647.8377654,6040955.829770485
650.9184646000001,6042808.214565452
654.0362346,6042237.85002349
657.1917038,6042205.402381332
660.3855139,6041558.797141752
663.6183202999999,6041589.643708087
666.8907926,6039859.313082472
668.2680793,6041025.600701578
669.1839152000001,6041878.621230503
670.1026805,6041536.203329182
670.2036149,6041028.030639296
671.0243889,6041817.049782247
671.949054,6041288.980459927
672.8766895,6041271.116313018
673.8073092,6041228.570076198
674.7409267,6041021.87285016
675.6775557999999,6041509.762488304
676.6172101,6041406.773123708
677.5599033,6041372.668337625
678.5056492000001,6041317.116322317
679.4544612999999,6041289.512202607
680.4063535,6041134.786884902
681.3613392999999,6041533.216924714
682.3194324,6041266.774412323
683.2806465,6041136.6792547135
684.2449952000001,6041656.735559247
685.2124921,6041453.935218197
686.1831509,6041477.807051958
687.1569850999999,6041447.407197123
688.1340083,6040951.0301357685
689.1142341,6041551.977994118
690.097676,6041295.175980351
691.0843474999999,6041496.867909148
692.0742622,6041330.458684293
693.0674334,6041360.913656178
694.0638748,6041843.168072684
695.0635996,6041188.541090461
696.0666212,6041507.856637272
697.0729531000001,6041130.160638803
698.0826086,6041226.637563645
699.0956008999999,6041517.02129734
700.1119432999999,6041433.962947777
701.1316491,6041447.719601933
702.1547314,6041815.003225118
703.1812034,6040981.717873668
704.2110782000001,6040967.6351438975
705.2443688999999,6041738.733177078
706.2810885,6041548.596795866
707.3212499,6041271.804002987
708.3648661000001,6041728.899340636
709.41195,6041584.068917628
710.4625143999999,6041240.915375478
711.5165721,6041437.214353087
712.5741357,6041658.888258887
713.6352181,6041853.817453749
714.6998317000001,6041671.885354993
715.7679891,6041130.504671548
716.8397027999999,6041436.080231153
717.9149852,6041318.773342314
718.9938487000001,6041110.558645267
720.0763055,6041722.756696959
721.162368,6041509.564044408
722.2520481,6041873.071762422
723.3453581,6041526.665576748
724.4423098,6041324.880358534
725.5429153,6041484.095598589
726.6471863,6041026.719533288
727.7551346,6041408.608434394
728.866772,6041784.03417271
729.9821099,6041725.843732835
731.1011599,6041513.788835146
732.2239335,6041210.168393136
733.3504419,6041645.331585477
734.4806963999999,6040885.036336835
735.6147081,6041689.546074187
736.7524882,6041305.1218696935
737.8940474,6041200.265325408
739.0393967,6041800.426085106
740.1885467999999,6041282.587589228
741.3415084,6041523.938211418
742.498292,6041349.3987891525
743.658908,6041682.543470183
744.8233667999999,6041026.177558086
745.9916785,6041609.620689474
747.1638532000001,6041236.894622227
748.3399009,6041267.287163357
749.5198315,6040997.277771267
750.7036546,6041894.717999257
751.89138,6041019.960727064
753.0830171,6041294.731642417
754.2785752999999,6041196.609560045
755.4780638,6040896.320479778
756.6814917,6041697.931365322
757.8888678999999,6041314.892698192
759.1002014999999,6041291.76002809
760.3155009,6041289.917748722
761.5347749,6036780.657062923
762.7580318,6023964.05980649
763.98528,5997712.657800937
765.2165276000001,5955951.308974412
766.4517825,5895347.040713949
767.6910527000001,5813382.031961722
768.9343458999999,5705559.672415217
770.1816697,5569875.59638177
771.4330313999999,5410181.127787641
772.6884382999999,5231843.763107789
773.9478975,5039085.463048446
775.211416,4832980.524139859
776.4790005,4616379.994471286
777.7506578,4391418.445752092
779.0263942,4162201.13336868
780.3062162,3932472.826492075
781.5901297,3704004.682353642
782.8781409,3478031.841765556
784.1702554999999,3257889.636634962
785.4664793,3047456.7490209923
786.7668176,2849790.805837604
788.0712758,2667880.449633716
789.3798591,2503522.8423466543
790.6925722999999,2356380.8811159288
792.0094204,2226130.71682236
793.3304079,2110622.710441304
794.6555392000001,2007214.1856742024
795.9848187000001,1913150.76315576
797.3182504,1825846.586434492
798.6558382999999,1742977.564362195
799.9975861,1663641.2775876955
801.3434973,1585741.904297726
802.6935752999999,1510419.1496726065
804.0478232999999,1437564.072187647
805.4062443,1367628.7720231244
806.7688411,1301695.3845820487
808.1356164,1240120.060906805
809.5065726,1183657.899297768
810.881712,1132334.1536698125
812.2610367000001,1085876.9113334347
813.6445485,1043587.3167137622
815.0322493,1004697.6743276272
816.4241404,968409.006576656
817.8202233,933318.2401410504
819.2204991,899116.5702209264
820.6249687999999,864897.1098753907
822.0336331,830232.955694159
823.4464925999999,794968.3611602952
824.8635477000001,759564.773113662
826.2847987,724118.5188902372
827.7102456,689123.515936417
829.1398882,655092.694732433
830.5737261,622111.7128145909
832.0117589,590517.13129382
833.4539857000001,560695.1867076791
834.9004057999999,532372.5912337779
836.3510179,505560.8878744025
837.8058209,479851.1261874744
839.2648132999999,455164.5877465536
840.7279934000001,431060.8606945975
842.1953594,407389.4142823333
843.6669092,384107.6578465593
845.1426408,361062.00322486064
846.6225517000001,338163.1508206549
848.1066392999999,315524.3289994862
849.5949009999999,293031.8247583148
851.0873337999999,271018.12152723875
852.5839347000001,249467.1316309073
854.0847002999999,228473.33789758905
855.5896273,208273.924826504
857.0987119999999,188741.7572744613
858.6119507000001,170146.76381401625
860.1293393999999,152510.40892807208
861.650874,136164.089540954
863.1765502000001,120960.25721488072
864.7063635,107014.17990464352
866.2403094,94338.80468785512
867.778383,82941.22315808732
869.3205793999999,72875.05904464095
870.8668935000001,63972.42718596479
872.4173199999999,56125.52867552271
873.9718536,49276.025414478776
875.5304886,43293.759152407234
877.0932193,38158.80559640124
878.6600399,33686.803771548395
880.2309443,29739.35129457298
881.8059264000001,26120.05528725268
883.3849798,22804.046260033087
884.9680981,19749.757825731333
886.5552747000002,16862.142316048292
888.1465029,14146.787363960331
889.7417757000001,11569.155556185571
891.3410862,9090.57184702946
892.9444273,6825.763449366958
894.5517916000001,4938.185893382236
896.1631719000001,3421.853088742012
897.7785605,2209.524925941165
899.3979498,1303.306992236457
901.0213321,660.9184241964713
902.6486995,256.61736409407644
904.280044,73.1600683633893
905.9153575,34.8168960149347
907.5546319,13.697765457150387
909.1978586,4.806466342541204
910.8450295,-3.375389010866936
912.4961358,-1.945838213316483
914.1511691,2.143651113792037
915.8101205,-5.588724546315235
917.4729813,-0.0847166052511163
919.1397426,-3.16334733574574
920.8103953,0.4415389257802514
922.4849303,4.762325317972104
924.1633386,0.3367390488550703
925.8456109,-2.954393976771409
927.5317378,1.1213101835771502
929.22171,-1.1784167152442042
930.9155179,-0.1959820145603092
932.6131521,2.623685655736
934.3146028,3.508808964553748
936.0198606,-1.4092467872262948
937.7289155,3.357051064217856
939.4417579,-0.1433549982058296
941.1583779,3.4924909085186995
942.8787656,1.7552833197681612
944.6029109,1.0438529115219704
946.3308041,1.61116527028671
948.0624349,-1.6406580822307812
949.7977933,0.0303627546615611
951.5368692,1.0054468414848572
953.2796523,2.8825024563870287
955.0261327,2.038386217692225
956.7762999,-0.9961022088620024
958.5301437,0.3059147389799099
960.2876539,-0.9832630871108788
962.0488201,-2.0465408019560334
963.813632,-3.145091001415989
965.5820793,-1.6500203217407448
967.3541517,-3.931627784697047
969.1298386,2.105018682888055
970.9091298,1.7033514814049606
972.6920149,-2.722886210281976
974.4784835,-0.4818640940231268
976.2685251,-0.3512474515183997
978.0621293,-4.374340339645181
979.8592859,-0.1795326001418748
981.6599843,1.1326973448076738
983.4642142,-1.3699780389486216
985.2719651,1.4194941617328218
987.0832269,-2.0340671427426784
988.897989,0.5951808195257647
990.7162412,0.8251880571268331
992.5379731,0.5697323218961414
994.3631745,-0.1305353913543167
996.191835,-2.5234487474089846
998.0239445,-1.4046168974828863
999.8594926,-1.721517714247634
1001.698469,0.1940873766338494
1003.540864,-2.4828015120146354
1005.386668,-0.2560380296789093
1007.235869,-1.0135027700346122
1009.088458,-1.3882057339090028
1010.944426,-1.4595044843212577
1012.803762,2.695458672122457
1014.666456,-1.7623914860927488
1016.532498,3.563393467847685
1018.401878,0.1326549887647255
1020.274588,2.036567084308109
1022.150616,-4.73185969603898
1024.029953,-1.7019446622146523
1025.912591,-1.3569396311604591
1027.798518,-1.7565954216705633
1029.687726,-0.98573078831702
1031.580205,0.4841937252135517
1033.475945,0.8186167813122637
1035.3749380000002,2.5893260434548018
1037.277175,1.538102537464364
1039.182645,-2.0127188922791954
1041.09134,2.6250894347966467
1043.003251,0.2137404881779373
1044.918368,-0.0573575810121391
1046.836683,0.7728066703273068
1048.758188,3.079024708981095
1050.682872,1.7863592040068756
1052.610728,-0.9875552316154448
1054.541747,0.8450681541709223
1056.4759210000002,0.5606905164531844
