wave,flux
306.2504509,699.4634286755139
306.5604242,1010.2841493736464
306.871524,1388.8709005427766
307.18375710000004,1804.088384050298
307.4971302,2275.5271002141285
307.8116501,2827.3972224346544
308.1273236,3056.357535631996
308.4441577,3303.7294690731483
308.7621594,3572.418206692511
309.0813356,3872.991287086763
309.4016935,4173.9498062747725
309.7232403,4497.911381943276
310.04598300000004,4819.0665100051865
310.369929,5141.574697816412
310.6950856,5439.114615733043
311.0214601,5739.271537765108
311.34906010000003,6039.437193518382
311.6778931,6306.078035671597
312.0079665,6608.099267347893
312.33928810000003,6899.404039450545
312.6718655,7206.009468280383
313.00570639999995,7547.680763910342
313.3408189,7915.625888895651
313.6772106,8283.995671158948
314.0148896,8707.008789429838
314.3538639,9144.369775501536
314.6941415,9597.3189168299
315.0357308,10079.55540583858
315.37863980000003,10556.712349590998
315.7228769,11045.661217053956
316.0684504,11549.434584980198
316.4153688,12064.203661770174
316.76364069999994,12561.667141126196
317.1132746,13058.400530510273
317.4642791,13560.417170703851
317.8166631,14075.633351667906
318.1704352,14562.556979229468
318.5256045,15076.783942295466
318.8821799,15610.435853590849
319.2401704,16130.052809969253
319.5995851,16678.84247950028
319.96043330000003,17267.224993587744
320.3227243,17871.68201989852
320.6864673,18495.120465255288
321.0516719,19151.150144625582
321.4183476,19837.942601693085
321.786504,20542.97371657295
322.1561508,21282.68290219197
322.5272977,22080.817388308253
322.8999548,22958.419649001287
323.2741319,23861.63821923086
323.649839,24910.62003808928
324.0270864,26094.85619009871
324.40588419999995,27386.56615740625
324.7862428,28902.845596104507
325.16817260000005,30592.468913772675
325.5516841,32537.909470802788
325.9367879,34851.401689811464
326.32349480000005,37453.51860710496
326.7118154,40574.87493657157
327.1017607,44228.28194189814
327.4933418,48470.476211051326
327.88656960000003,53505.02657820094
328.2814555,59312.79643363954
328.6780106,66136.76510482255
329.0762465,73928.74330404871
329.47617460000004,82850.93094839684
329.8778065,92846.78363958784
330.281154,103972.3494646084
330.6862289,115981.21786149574
331.0930432,128858.30578458623
331.5016088,142285.02082973812
331.911938,156048.33608806116
332.32404310000004,169873.84161894338
332.7379364,183346.4521740164
333.1536305,196389.7400449882
333.571138,208696.6333032556
333.9904716,220172.32558913648
334.4116443,230731.793361525
334.834669,240558.99582884635
335.2595588,249683.5696313836
335.686327,258235.07452827587
336.114987,266456.97692590754
336.5455522,274631.74762715923
336.9780363,282917.2383773175
337.41245310000005,291486.04675196914
337.8488164,300755.0553788514
338.28714019999995,310943.76721197966
338.7274388,322117.6997230223
339.1697264,334891.4560891176
339.6140175,349560.058100602
340.06032660000005,366527.06391549815
340.5086685,386103.8106627935
340.959058,408813.2744534762
341.4115102,434756.8164131042
341.8660403,464192.2401358002
342.32266339999995,497105.4484774471
342.7813952,533506.2449701864
343.24225110000003,572965.5998741448
343.70524710000007,615079.8672200757
344.17039889999995,659234.5164987645
344.6377228,704482.7874167169
345.1072349,749602.0238971759
345.5789517,793848.5433202693
346.0528897,835500.0274152182
346.5290657,873514.0444749951
347.0074967,906745.1672749992
347.48819960000003,934331.5876295504
347.9711917,955343.4025882004
348.45649060000005,970103.14115016
348.9441137,978684.9406196796
349.434079,981930.8834196116
349.9264043,981060.1007123974
350.4211078,977464.494002272
350.9182079,972393.8597352944
351.4177232,967501.817904178
351.9196722,963697.6727257896
352.42407410000004,961574.8770336732
352.9309478,961373.662743552
353.4403127,962702.3809050452
353.95218839999995,964715.2471926732
354.4665945,966570.5806207692
354.983551,966998.6773585698
355.503078,965324.7221851044
356.025196,960373.3071034696
356.5499253,951962.7988969588
357.077287,940134.257607586
357.6073018,925513.3614309432
358.1399912,908705.762043664
358.6753765,891405.3674202395
359.2134795,874679.1706543609
359.754322,860108.6557001581
360.2979263,849254.5246159657
360.8443147,843284.3858863319
361.3935098,843212.1445364223
361.9455346,849041.7741070265
362.5004122,860895.947171357
363.058166,878490.0319409096
363.61881960000005,900773.686117012
364.1823969,926772.9688867584
364.7489221,955014.6834117824
365.3184196,984434.6378947672
365.8909141,1013854.7697702076
366.4664305,1042021.0557975132
367.0449943,1068468.20176517
367.6266307,1092848.889810646
368.2113658,1114621.3874106936
368.7992255,1134116.5951376674
369.3902363,1151127.8067744346
369.9844249,1166089.3340443876
370.5818182,1179197.5717194718
371.1824436,1190538.952515776
371.7863286000001,1200346.64077804
372.3935012,1208874.7469968884
373.0039896,1216003.1454853946
373.6178223,1221931.570544803
374.2350283,1226669.494772188
374.8556368,1230215.386442384
375.4796772,1232576.914358643
376.1071796,1233723.1308176443
376.7381741,1233195.8324694843
377.3726913,1231134.6493311157
378.0107622,1227081.6276380492
378.652418,1221399.7862785782
379.2976904,1213949.1489737662
379.9466115,1205045.3962123524
380.5992136,1195649.9509020357
381.2555296,1186430.8568751195
381.9155926,1178834.0431940495
382.5794362,1174332.2622308815
383.2470943,1174985.147698766
383.9186014,1182431.0834384104
384.5939922,1197908.2492139512
385.2733019,1222809.8484203017
385.9565661,1258117.8956058929
386.6438209,1303515.52957444
387.3351027,1358947.4940940968
388.0304484,1423947.1457332713
388.7298955,1497170.8559825488
389.4334817,1577147.1493940246
390.1412452,1664667.5808350474
390.853225,1759107.995813789
391.56946,1860164.9998382528
392.2899901,1967568.012949088
393.0148555,2081962.78903749
393.7440968,2203320.565932132
394.4777551,2332831.766996258
395.2158722,2471926.3213182744
395.9584903,2618204.7894099928
396.7056521,2772227.8871170487
397.457401,2934693.507900631
398.2137806,3106146.869324806
398.9748353,3285569.481577828
399.7406101,3471420.67065291
400.5111505,3661593.823936032
401.2865024,3852527.034605712
402.0667126,4040076.662297868
402.8518283,4219839.565813797
403.6418973,4385218.59040911
404.436968,4529371.503164033
405.2370896,4645936.509170897
406.0423117,4729904.346760067
406.8526847,4778874.15232947
407.66825960000006,4790132.886621512
408.4890879,4765793.130155568
409.3152221,4709241.3739729095
410.1467152,4626207.18988968
410.9836208,4526671.368513066
411.8259934,4419202.186729844
412.673888,4315015.8118952885
413.5273605,4224826.912524854
414.38646760000006,4157941.921662109
415.2512664,4122968.415223581
416.1218152,4125507.569865009
416.9981727,4168349.0752521455
417.8803987,4252801.323744332
418.7685535,4377727.96493771
419.6626985,4535456.07451454
420.5628957,4717551.58249706
421.4692081,4913876.776428308
422.3816994,5113732.662115328
423.3004343,5309266.325857067
424.2254783,5488844.52425168
425.1568978,5645930.478630058
426.0947602,5772528.825356739
427.0391337,5870135.52807969
427.9900874,5940832.757370422
428.9476917,5989120.821065776
429.9120175,6018793.144919281
430.8831369,6034801.380749811
431.8611232,6040666.416829239
432.8460504,6041640.09016302
433.8379937,6041605.693098855
434.8370293,6041051.360042574
435.8432345,6041043.080183955
436.8566878,6041585.850741235
437.8774686,6041505.082545023
438.9056575,6041139.780907524
439.9413364,6041385.863312536
440.9845882,6040843.220100034
442.035497,6041479.504778245
443.0941482,6041790.888380408
444.1606283,6041732.659083745
445.23502520000005,6041473.441228302
446.317428,6041808.060771024
447.407927,6041373.573306548
448.5066141,6041332.800134407
449.6135822,6041334.9681371385
450.7289258,6041363.569150762
451.85274060000006,6041745.937374591
452.9851239,6041346.515065655
454.1261744,6041215.917419503
455.2759921,6041253.821712392
456.4346788,6041245.2603963725
457.6023374,6041219.954586783
458.7790727,6041367.136455535
459.9649909,6041318.4690751
461.1601998,6041766.353958023
462.364809,6041511.373885556
463.5789295,6041064.304820801
464.8026741000001,6041366.118498132
466.0361575,6041078.952080471
467.2794956999999,6041795.719456527
468.5328070000001,6041697.9306539325
469.7962111000001,6041269.352966473
471.0698299,6041309.119660096
472.3537868,6041335.786456732
473.6482074,6041077.20579346
474.9532192,6042054.635178967
476.2689517,6041336.276924739
477.5955362,6041339.592100125
478.93310639999993,6041948.153051026
480.2817979,6041266.319930272
481.6417484,6041208.736382369
483.01309800000007,6041422.976251697
484.3959889,6041094.672912785
485.7905654,6041387.733838857
487.1969743,6041363.755457159
488.6153648,6041411.835632151
490.0458884,6041874.693297433
491.488699,6041579.594733514
492.943953,6041398.085732915
494.4118094,6041161.1212776415
495.8924299,6041851.588633525
497.3859785,6041594.712711731
498.8926222,6041447.856728473
500.4125306,6042147.662838121
501.9458762,6041369.605483757
503.4928341,6041537.438466799
505.0535827,6041543.817474427
506.628303,6041208.399135014
508.2171791999999,6041526.1115528
509.8203986,6041408.73528961
511.4381515,6041443.100318458
513.0706316000001,6041107.193234625
514.7180356,6041284.490396367
516.3805639,6041444.646000832
518.0584200000001,6041275.222903402
519.7518110000001,6041436.177540382
521.4609475999999,6041331.142882106
523.186044,6041873.644213162
524.927318,6041361.044353495
526.6849915,6041853.916420305
528.45929,6041548.598310455
530.2504428000001,6041595.410783988
532.0586836,6041576.466908856
533.8842498,6041257.573953102
535.7273833,6041263.617831044
537.5883299,6041536.151271064
539.46734,6041836.8162793685
541.3646685,6041225.81676383
543.2805745000001,6041556.236221359
545.2153222000001,6040938.244432719
547.1691801,6041448.612128247
549.1424218999999,6041554.679127344
551.1353259,6041465.9985085735
553.1481756000001,6041092.1039930135
555.1812597,6041515.705204733
557.2348721,6041102.70164609
559.3093121,6041463.700027424
561.4048845,6041363.790101662
563.5218996,6041352.0961395
565.6606737000001,6041451.186962343
567.8215287,6041560.820864969
570.0047927,6041860.642240862
572.2107997,6041538.782545771
574.4398902,6041170.112885804
576.692411,6041036.595345934
578.9687155,6040814.589308713
581.2691637,6041407.958314175
583.5941226,6041199.021129936
585.943966,6041467.114094951
588.3190752,6041351.109281995
590.7198384999999,6041794.496954005
593.1466518,6041201.1821
595.5999188999999,6041076.488658188
598.0800512,6041846.895136774
600.5874682,6041119.385772145
603.1225977000001,6041464.470818898
605.6858758999999,6041461.4258224685
608.2777476,6041093.660542434
610.8986664,6041613.587712164
613.549095,6041598.887624688
616.2295054,6041278.736381199
618.940379,6041790.8273492325
621.6822068,6042028.0843830425
624.4554901,6041923.19506319
627.2607402000001,6042588.483528172
630.0984786,6040407.568366477
632.9692378999999,6041755.028169938
646.2843386,6041751.863863017
647.1313635,6041432.707553772
647.980979,6041639.2935286
648.8331985,6041530.901683455
649.6880352999999,6041238.076626463
650.5455028,6041684.580826319
651.4056144,6041370.302348843
652.2683836,6041758.53502382
653.1338237000001,6041033.48180772
654.0019482999999,6041398.277759437
654.8727708,6041174.869245926
655.7463047,6041098.4605098935
656.6225636,6041247.998199501
657.501561,6041213.102491157
658.3833105,6041675.173506688
659.2678255,6041354.862794315
660.1551197000001,6041644.441429223
661.0452068,6041939.220913758
661.9381002,6041391.46357243
662.8338137000001,6041566.783747729
663.7323607999999,6041506.331844827
664.6337553,6041395.154352518
665.5380107000001,6041174.928814688
666.4451407,6041789.567108886
667.355159,6041768.990847449
668.2680793,6041025.600701578
669.1839152000001,6041878.621230503
670.1026805,6041536.203329182
671.0243889,6041817.049782247
671.949054,6041288.980459927
672.8766895,6041271.116313018
673.8073092,6041228.570076198
674.7409267,6041021.87285016
675.6775557999999,6041509.762488304
676.6172101,6041406.773123708
677.5599033,6041372.668337625
678.5056492000001,6041317.116322317
679.4544612999999,6041289.512202607
680.4063535,6041134.786884902
681.3613392999999,6041533.216924714
682.3194324,6041266.774412323
683.2806465,6041136.6792547135
684.2449952000001,6041656.735559247
685.2124921,6041453.935218197
686.1831509,6041477.807051958
687.1569850999999,6041447.407197123
688.1340083,6040951.0301357685
689.1142341,6041551.977994118
690.097676,6041295.175980351
691.0843474999999,6041496.867909148
692.0742622,6041330.458684293
693.0674334,6041360.913656178
694.0638748,6041843.168072684
695.0635996,6041188.541090461
696.0666212,6041507.856637272
697.0729531000001,6041130.160638803
698.0826086,6041226.637563645
699.0956008999999,6041517.02129734
700.1119432999999,6041433.962947777
701.1316491,6041447.719601933
702.1547314,6041815.003225118
703.1812034,6040981.717873668
704.2110782000001,6040967.6351438975
705.2443688999999,6041738.733177078
706.2810885,6041548.596795866
707.3212499,6041271.804002987
708.3648661000001,6041728.899340636
709.41195,6041584.068917628
710.4625143999999,6041240.915375478
711.5165721,6041437.214353087
712.5741357,6041658.888258887
713.6352181,6041853.817453749
714.6998317000001,6041671.885354993
715.7679891,6041130.504671548
716.8397027999999,6041436.080231153
717.9149852,6041318.773342314
718.9938487000001,6041110.558645267
720.0763055,6041722.756696959
721.162368,6041509.564044408
722.2520481,6041873.071762422
723.3453581,6041526.665576748
724.4423098,6041324.880358534
725.5429153,6041484.095598589
726.6471863,6041026.719533288
727.7551346,6041408.608434394
728.866772,6041784.03417271
729.9821099,6041725.843732835
731.1011599,6041513.788835146
732.2239335,6041210.168393136
733.3504419,6041645.331585477
734.4806963999999,6040885.036336835
735.6147081,6041689.546074187
736.7524882,6041305.1218696935
737.8940474,6041200.265325408
739.0393967,6041800.426085106
740.1885467999999,6041282.587589228
741.3415084,6041523.938211418
742.498292,6041349.3987891525
743.658908,6041682.543470183
744.8233667999999,6041026.177558086
745.9916785,6041609.620689474
747.1638532000001,6041236.894622227
748.3399009,6041267.287163357
749.5198315,6040997.277771267
750.7036546,6041894.717999257
751.89138,6041019.960727064
753.0830171,6041294.731642417
754.2785752999999,6041196.609560045
755.4780638,6040896.320479778
756.6814917,6041697.931365322
757.8888678999999,6041314.892698192
759.1002014999999,6041291.76002809
760.3155009,6041289.917748722
761.5347749,6036780.657062923
762.7580318,6023964.05980649
763.98528,5997712.657800937
765.2165276000001,5955951.308974412
766.4517825,5895347.040713949
767.6910527000001,5813382.031961722
768.9343458999999,5705559.672415217
770.1816697,5569875.59638177
771.4330313999999,5410181.127787641
772.6884382999999,5231843.763107789
773.9478975,5039085.463048446
775.211416,4832980.524139859
776.4790005,4616379.994471286
777.7506578,4391418.445752092
779.0263942,4162201.13336868
780.3062162,3932472.826492075
781.5901297,3704004.682353642
782.8781409,3478031.841765556
784.1702554999999,3257889.636634962
785.4664793,3047456.7490209923
786.7668176,2849790.805837604
788.0712758,2667880.449633716
789.3798591,2503522.8423466543
790.6925722999999,2356380.8811159288
792.0094204,2226130.71682236
793.3304079,2110622.710441304
794.6555392000001,2007214.1856742024
795.9848187000001,1913150.76315576
797.3182504,1825846.586434492
798.6558382999999,1742977.564362195
799.9975861,1663641.2775876955
801.3434973,1585741.904297726
802.6935752999999,1510419.1496726065
804.0478232999999,1437564.072187647
805.4062443,1367628.7720231244
806.7688411,1301695.3845820487
808.1356164,1240120.060906805
809.5065726,1183657.899297768
810.881712,1132334.1536698125
812.2610367000001,1085876.9113334347
813.6445485,1043587.3167137622
815.0322493,1004697.6743276272
816.4241404,968409.006576656
817.8202233,933318.2401410504
819.2204991,899116.5702209264
820.6249687999999,864897.1098753907
822.0336331,830232.955694159
823.4464925999999,794968.3611602952
824.8635477000001,759564.773113662
826.2847987,724118.5188902372
827.7102456,689123.515936417
829.1398882,655092.694732433
830.5737261,622111.7128145909
832.0117589,590517.13129382
833.4539857000001,560695.1867076791
834.9004057999999,532372.5912337779
836.3510179,505560.8878744025
837.8058209,479851.1261874744
839.2648132999999,455164.5877465536
840.7279934000001,431060.8606945975
842.1953594,407389.4142823333
843.6669092,384107.6578465593
845.1426408,361062.00322486064
846.6225517000001,338163.1508206549
848.1066392999999,315524.3289994862
849.5949009999999,293031.8247583148
851.0873337999999,271018.12152723875
852.5839347000001,249467.1316309073
854.0847002999999,228473.33789758905
855.5896273,208273.924826504
857.0987119999999,188741.7572744613
858.6119507000001,170146.76381401625
860.1293393999999,152510.40892807208
861.650874,136164.089540954
863.1765502000001,120960.25721488072
864.7063635,107014.17990464352
866.2403094,94338.80468785512
867.778383,82941.22315808732
869.3205793999999,72875.05904464095
870.8668935000001,63972.42718596479
872.4173199999999,56125.52867552271
873.9718536,49276.025414478776
875.5304886,43293.759152407234
877.0932193,38158.80559640124
878.6600399,33686.803771548395
880.2309443,29739.35129457298
881.8059264000001,26120.05528725268
883.3849798,22804.046260033087
884.9680981,19749.757825731333
886.5552747000002,16862.142316048292
888.1465029,14146.787363960331
889.7417757000001,11569.155556185571
891.3410862,9090.57184702946
892.9444273,6825.763449366958
894.5517916000001,4938.185893382236
896.1631719000001,3421.853088742012
897.7785605,2209.524925941165
899.3979498,1303.306992236457
901.0213321,660.9184241964713
902.6486995,256.61736409407644
904.280044,73.1600683633893
905.9153575,34.8168960149347
907.5546319,13.697765457150387
909.1978586,4.806466342541204
910.8450295,-3.375389010866936
912.4961358,-1.945838213316483
914.1511691,2.143651113792037
915.8101205,-5.588724546315235
917.4729813,-0.0847166052511163
919.1397426,-3.16334733574574
920.8103953,0.4415389257802514
922.4849303,4.762325317972104
924.1633386,0.3367390488550703
925.8456109,-2.954393976771409
927.5317378,1.1213101835771502
929.22171,-1.1784167152442042
930.9155179,-0.1959820145603092
932.6131521,2.623685655736
934.3146028,3.508808964553748
936.0198606,-1.4092467872262948
937.7289155,3.357051064217856
939.4417579,-0.1433549982058296
941.1583779,3.4924909085186995
942.8787656,1.7552833197681612
944.6029109,1.0438529115219704
946.3308041,1.61116527028671
948.0624349,-1.6406580822307812
949.7977933,0.0303627546615611
951.5368692,1.0054468414848572
953.2796523,2.8825024563870287
955.0261327,2.038386217692225
956.7762999,-0.9961022088620024
958.5301437,0.3059147389799099
960.2876539,-0.9832630871108788
962.0488201,-2.0465408019560334
963.813632,-3.145091001415989
965.5820793,-1.6500203217407448
967.3541517,-3.931627784697047
969.1298386,2.105018682888055
970.9091298,1.7033514814049606
972.6920149,-2.722886210281976
974.4784835,-0.4818640940231268
976.2685251,-0.3512474515183997
978.0621293,-4.374340339645181
979.8592859,-0.1795326001418748
981.6599843,1.1326973448076738
983.4642142,-1.3699780389486216
985.2719651,1.4194941617328218
987.0832269,-2.0340671427426784
988.897989,0.5951808195257647
990.7162412,0.8251880571268331
992.5379731,0.5697323218961414
994.3631745,-0.1305353913543167
996.191835,-2.5234487474089846
998.0239445,-1.4046168974828863
999.8594926,-1.721517714247634
1001.698469,0.1940873766338494
1003.540864,-2.4828015120146354
1005.386668,-0.2560380296789093
1007.235869,-1.0135027700346122
1009.088458,-1.3882057339090028
1010.944426,-1.4595044843212577
1012.803762,2.695458672122457
1014.666456,-1.7623914860927488
1016.532498,3.563393467847685
1018.401878,0.1326549887647255
1020.274588,2.036567084308109
1022.150616,-4.73185969603898
1024.029953,-1.7019446622146523
1025.912591,-1.3569396311604591
1027.798518,-1.7565954216705633
1029.687726,-0.98573078831702
1031.580205,0.4841937252135517
1033.475945,0.8186167813122637
