wave,flux
306.2504509,1018.6725001894991
306.5604242,1426.7484175482784
306.871524,1873.350002035552
307.18375710000004,2393.4367154565907
307.4971302,2962.835669102964
307.8116501,3615.4521530946527
308.1273236,3846.9432243977753
308.4441577,4111.255272368118
308.7621594,4397.8453342754165
309.0813356,4712.253779135031
309.4016935,5046.503295072497
309.7232403,5377.246386772084
310.04598300000004,5739.166732391148
310.369929,6124.4867813198425
310.6950856,6537.82507865203
311.0214601,6962.350921458816
311.34906010000003,7407.536146367633
311.6778931,7862.8701270444
312.0079665,8337.788503841595
312.33928810000003,8813.126225839513
312.6718655,9320.810928211897
313.00570639999995,9805.677832750349
313.3408189,10317.254452634552
313.6772106,10809.899237063615
314.0148896,11320.330687801614
314.3538639,11857.136211805717
314.6941415,12455.800916301285
315.0357308,13061.283827433055
315.37863980000003,13715.377713150843
315.7228769,14439.932001481273
316.0684504,15201.77168198116
316.4153688,15996.57424865047
316.76364069999994,16868.676545511156
317.1132746,17756.675301054318
317.4642791,18668.679414420843
317.8166631,19617.31720470061
318.1704352,20588.196860881595
318.5256045,21553.55396767632
318.8821799,22500.70249809233
319.2401704,23497.817009467664
319.5995851,24479.94847429034
319.96043330000003,25437.293778016538
320.3227243,26360.053743673583
320.6864673,27335.50887713368
321.0516719,28261.80605939037
321.4183476,29221.27825237007
321.786504,30171.939912216607
322.1561508,31144.7157172824
322.5272977,32166.715982814618
322.8999548,33232.521297357605
323.2741319,34410.117115083616
323.649839,35643.51902438035
324.0270864,37080.3767166208
324.40588419999995,38692.61194411649
324.7862428,40475.10321407412
325.16817260000005,42528.35667180592
325.5516841,44985.28347809363
325.9367879,47884.316404318175
326.32349480000005,51196.55824547367
326.7118154,55098.24252414388
327.1017607,59710.83885364088
327.4933418,65267.058443916816
327.88656960000003,71743.57605938076
328.2814555,79502.4311484974
328.6780106,88492.52300452943
329.0762465,99250.52844263612
329.47617460000004,111780.08303008604
329.8778065,126255.07444299111
330.281154,143045.62681834307
330.6862289,162034.48480858706
331.0930432,183082.49393220808
331.5016088,206170.1704962379
331.911938,230911.8703661345
332.32404310000004,256609.7905089505
332.7379364,282807.6491168097
333.1536305,308565.29239749874
333.571138,333139.0559671084
333.9904716,355626.7029661765
334.4116443,375342.0259213183
334.834669,391860.9626905466
335.2595588,404716.8128716995
335.686327,413899.97486933775
336.114987,419864.4428135823
336.5455522,422935.70990985393
336.9780363,423776.8439210035
337.41245310000005,423300.7323361622
337.8488164,422381.9964402898
338.28714019999995,421728.83960154944
338.7274388,422180.8308389936
339.1697264,424135.8919394664
339.6140175,428423.4952800504
340.06032660000005,435298.5779635109
340.5086685,445171.4502606517
340.959058,458438.17260873935
341.4115102,475444.63772957353
341.8660403,496387.42075984576
342.32266339999995,521859.9642669693
342.7813952,551944.4907841121
343.24225110000003,586891.6791151565
343.70524710000007,626648.5323164436
344.17039889999995,671042.5585043315
344.6377228,719888.755027351
345.1072349,772370.6997056466
345.5789517,827931.7184819704
346.0528897,886045.5608528751
346.5290657,945273.054225382
347.0074967,1005107.2328409724
347.48819960000003,1064295.5660494743
347.9711917,1121508.1642474309
348.45649060000005,1176109.2538956671
348.9441137,1226691.5725896307
349.434079,1272868.5114974692
349.9264043,1313334.4754617102
350.4211078,1347705.801303265
350.9182079,1375811.6259576897
351.4177232,1397829.9432060262
351.9196722,1414407.1484963768
352.42407410000004,1426458.363400684
352.9309478,1435405.3142526916
353.4403127,1443190.4294934275
353.95218839999995,1450965.5684582829
354.4665945,1461140.4705810838
354.983551,1474536.4509321554
355.503078,1492373.2511421922
356.025196,1515185.3436210211
356.5499253,1542223.1907141882
357.077287,1573618.8971748734
357.6073018,1607082.0224738426
358.1399912,1642024.2820237083
358.6753765,1676523.4578489868
359.2134795,1708814.8839136085
359.754322,1737992.770965439
360.2979263,1762698.076755309
360.8443147,1782535.646329214
361.3935098,1797017.8098279126
361.9455346,1806406.326616216
362.5004122,1810975.6961968709
363.058166,1810915.677117171
363.61881960000005,1807185.902849767
364.1823969,1800134.947425455
364.7489221,1790635.1680457522
365.3184196,1778924.0983583734
365.8909141,1765194.328067365
366.4664305,1750455.164100567
367.0449943,1734137.854811768
367.6266307,1715960.2914714166
368.2113658,1695878.3412706526
368.7992255,1673826.7857731625
369.3902363,1649293.6137081631
369.9844249,1622371.500700988
370.5818182,1592849.0215367156
371.1824436,1561670.5049049526
371.7863286000001,1528788.54647092
372.3935012,1495740.0992190477
373.0039896,1463365.2998297082
373.6178223,1432465.1230215312
374.2350283,1404462.228413005
374.8556368,1379597.6735278794
375.4796772,1358485.700291221
376.1071796,1340699.2841483045
376.7381741,1326231.2380765807
377.3726913,1314024.7594768836
378.0107622,1303213.4066228725
378.652418,1293058.8732271446
379.2976904,1283304.254261784
379.9466115,1272927.0269440208
380.5992136,1262496.3176322673
381.2555296,1252032.106454664
381.9155926,1242993.83961304
382.5794362,1236543.15628948
383.2470943,1234545.8738413162
383.9186014,1238516.3369277252
384.5939922,1250153.197088882
385.2733019,1270617.8554840018
385.9565661,1300962.3207269008
386.6438209,1341460.9961954963
387.3351027,1392432.7673382445
388.0304484,1453077.8332042776
388.7298955,1523069.2895168709
389.4334817,1601423.932506491
390.1412452,1687705.4305442232
390.853225,1780922.044675784
391.56946,1880671.8126742137
392.2899901,1987004.0073971385
393.0148555,2099167.900459473
393.7440968,2217136.771795131
394.4777551,2340506.0250422168
395.2158722,2468482.945838958
395.9584903,2599549.5546591813
396.7056521,2731915.744942009
397.457401,2863699.41299726
398.2137806,2991617.948347775
398.9748353,3112913.0622736462
399.7406101,3224545.503214932
400.5111505,3323446.925220801
401.2865024,3406997.729082665
402.0667126,3473850.6319965487
402.8518283,3525689.545557445
403.6418973,3563373.538249676
404.436968,3590621.0512620164
405.2370896,3613084.200958489
406.0423117,3637729.4724158426
406.8526847,3672593.1654298767
407.66825960000006,3724461.332118933
408.4890879,3800342.094685199
409.3152221,3905204.2313317857
410.1467152,4042426.816606883
410.9836208,4210646.341859683
411.8259934,4405862.272579052
412.673888,4619935.483304757
413.5273605,4843932.7164797485
414.38646760000006,5066717.960391907
415.2512664,5278774.821133385
416.1218152,5471464.252018779
416.9981727,5636525.65718472
417.8803987,5764098.159139782
418.7685535,5849867.207536742
419.6626985,5893801.1280613225
420.5628957,5895909.748616288
421.4692081,5855670.074373481
422.3816994,5775202.670296607
423.3004343,5655762.266899665
424.2254783,5500775.772035413
425.1568978,5322591.673205543
426.0947602,5129198.644222971
427.0391337,4931771.911097816
427.9900874,4740447.886402063
428.9476917,4565365.31295338
429.9120175,4414493.696887506
430.8831369,4295677.435859928
431.8611232,4212452.910167331
432.8460504,4164978.311664476
433.8379937,4150384.746000933
434.8370293,4163032.2231991887
435.8432345,4197441.430107527
436.8566878,4247091.827121373
437.8774686,4305841.08774284
438.9056575,4368731.865132969
439.9413364,4431227.968663757
440.9845882,4489356.413284494
442.035497,4541770.263121453
443.0941482,4587552.423007119
444.1606283,4627146.6077326285
445.23502520000005,4662590.697492435
446.317428,4695906.5942345485
447.407927,4731374.004897745
448.5066141,4772896.890256155
449.6135822,4825488.518889844
450.7289258,4892506.370030185
451.85274060000006,4976939.641436837
452.9851239,5076911.260208065
454.1261744,5190697.974025485
455.2759921,5313897.885292344
456.4346788,5441186.12685075
457.6023374,5567722.52243324
458.7790727,5686404.736980426
459.9649909,5788676.650291156
461.1601998,5871422.234319707
462.364809,5935412.046672119
463.5789295,5981448.164852351
464.8026741000001,6012801.910181105
466.0361575,6030943.090724292
467.2794956999999,6039360.271053506
468.5328070000001,6041446.489768738
469.7962111000001,6041194.231685914
471.0698299,6041374.325796434
472.3537868,6041673.109400706
473.6482074,6041020.776032813
474.9532192,6041377.714255816
476.2689517,6041410.253015428
477.5955362,6041634.923856061
478.93310639999993,6041296.062637627
480.2817979,6041590.595251228
481.6417484,6041406.302239426
483.01309800000007,6041197.02177974
484.3959889,6041088.141252148
485.7905654,6041184.408881816
487.1969743,6041610.026919132
488.6153648,6041029.372167488
490.0458884,6041419.324479078
491.488699,6041856.938785294
492.943953,6041316.239616582
494.4118094,6041312.782152298
495.8924299,6041653.314376922
497.3859785,6041225.870958519
498.8926222,6041245.536885689
500.4125306,6041697.340897104
501.9458762,6041205.553619261
503.4928341,6041326.715575885
505.0535827,6041370.28762111
506.628303,6041367.518284821
508.2171791999999,6040648.522358413
509.8203986,6041296.628191917
511.4381515,6041221.389492269
513.0706316000001,6041596.297167319
514.7180356,6041715.748709277
516.3805639,6041285.910598522
518.0584200000001,6041532.273433485
519.7518110000001,6041593.673656247
521.4609475999999,6041747.995670215
523.186044,6041524.195560575
524.927318,6041264.494290219
526.6849915,6041375.197916837
528.45929,6041738.6937850285
530.2504428000001,6041280.433801092
532.0586836,6041732.870608407
533.8842498,6041562.605952274
535.7273833,6041769.001147922
537.5883299,6041283.280641613
539.46734,6041243.005962505
541.3646685,6041433.325066709
543.2805745000001,6041182.480499588
545.2153222000001,6041714.448665795
547.1691801,6041392.339546078
549.1424218999999,6041344.985239373
551.1353259,6041689.765650254
553.1481756000001,6041485.679642702
555.1812597,6041460.683975631
557.2348721,6041715.973811967
559.3093121,6040978.2164139375
561.4048845,6041589.7572966525
563.5218996,6041437.752393558
565.6606737000001,6041355.131876048
567.8215287,6041075.833706901
570.0047927,6041440.556035047
572.2107997,6041138.057703268
574.4398902,6041721.694615591
576.692411,6041685.448200224
578.9687155,6041673.714401937
581.2691637,6041525.469077245
583.5941226,6041885.002529987
585.943966,6041122.327026377
588.3190752,6040964.791665548
590.7198384999999,6041601.426100564
593.1466518,6041448.95181533
595.5999188999999,6041231.9608080285
598.0800512,6041383.397134848
600.5874682,6041743.347314545
603.1225977000001,6041425.465533563
605.6858758999999,6041816.219172489
608.2777476,6041448.457373865
610.8986664,6041801.061442417
613.549095,6041371.844763433
616.2295054,6041515.561347228
618.940379,6041107.55721184
621.6822068,6042692.464929612
624.4554901,6042778.391859511
627.2607402000001,6040625.1330162175
630.0984786,6042498.071897217
632.9692378999999,6042329.864132121
635.8735614,6040832.5801206585
638.8120038,6040180.636818582
641.7851312999999,6041272.48219604
644.7935217999999,6042246.015236167
647.8377654,6040415.271522941
650.9184646000001,6039266.953197638
654.0362346,6041871.174484118
657.1917038,6042344.47914576
660.3855139,6039963.8271941785
663.6183202999999,6041327.691097167
666.8907926,6041818.747387605
671.0243889,6041817.049782247
671.949054,6041288.980459927
672.8766895,6041271.116313018
673.8073092,6041228.570076198
674.7409267,6041021.87285016
675.6775557999999,6041509.762488304
676.6172101,6041406.773123708
677.5599033,6041372.668337625
678.5056492000001,6041317.116322317
679.4544612999999,6041289.512202607
680.4063535,6041134.786884902
681.3613392999999,6041533.216924714
682.3194324,6041266.774412323
683.2806465,6041136.6792547135
684.2449952000001,6041656.735559247
685.2124921,6041453.935218197
686.1831509,6041477.807051958
687.1569850999999,6041447.407197123
688.1340083,6040951.0301357685
689.1142341,6041551.977994118
690.097676,6041295.175980351
691.0843474999999,6041496.867909148
692.0742622,6041330.458684293
693.0674334,6041360.913656178
694.0638748,6041843.168072684
695.0635996,6041188.541090461
696.0666212,6041507.856637272
697.0729531000001,6041130.160638803
698.0826086,6041226.637563645
699.0956008999999,6041517.02129734
700.1119432999999,6041433.962947777
701.1316491,6041447.719601933
702.1547314,6041815.003225118
703.1812034,6040981.717873668
704.2110782000001,6040967.6351438975
705.2443688999999,6041738.733177078
706.2810885,6041548.596795866
707.3212499,6041271.804002987
708.3648661000001,6041728.899340636
709.41195,6041584.068917628
710.4625143999999,6041240.915375478
711.5165721,6041437.214353087
712.5741357,6041658.888258887
713.6352181,6041853.817453749
714.6998317000001,6041671.885354993
715.7679891,6041130.504671548
716.8397027999999,6041436.080231153
717.9149852,6041318.773342314
718.9938487000001,6041110.558645267
720.0763055,6041722.756696959
721.162368,6041509.564044408
722.2520481,6041873.071762422
723.3453581,6041526.665576748
724.4423098,6041324.880358534
725.5429153,6041484.095598589
726.6471863,6041026.719533288
727.7551346,6041408.608434394
728.866772,6041784.03417271
729.9821099,6041725.843732835
731.1011599,6041513.788835146
732.2239335,6041210.168393136
733.3504419,6041645.331585477
734.4806963999999,6040885.036336835
735.6147081,6041689.546074187
736.7524882,6041305.1218696935
737.8940474,6041200.265325408
739.0393967,6041800.426085106
740.1885467999999,6041282.587589228
741.3415084,6041523.938211418
742.498292,6041349.3987891525
743.658908,6041682.543470183
744.8233667999999,6041026.177558086
745.9916785,6041609.620689474
747.1638532000001,6041236.894622227
748.3399009,6041267.287163357
749.5198315,6040997.277771267
750.7036546,6041894.717999257
751.89138,6041019.960727064
753.0830171,6041294.731642417
754.2785752999999,6041196.609560045
755.4780638,6040896.320479778
756.6814917,6041697.931365322
757.8888678999999,6041314.892698192
759.1002014999999,6041291.76002809
760.3155009,6041289.917748722
761.5347749,6036780.657062923
762.7580318,6023964.05980649
763.98528,5997712.657800937
765.2165276000001,5955951.308974412
766.4517825,5895347.040713949
767.6910527000001,5813382.031961722
768.9343458999999,5705559.672415217
770.1816697,5569875.59638177
771.4330313999999,5410181.127787641
772.6884382999999,5231843.763107789
773.9478975,5039085.463048446
775.211416,4832980.524139859
776.4790005,4616379.994471286
777.7506578,4391418.445752092
779.0263942,4162201.13336868
780.3062162,3932472.826492075
781.5901297,3704004.682353642
782.8781409,3478031.841765556
784.1702554999999,3257889.636634962
785.4664793,3047456.7490209923
786.7668176,2849790.805837604
788.0712758,2667880.449633716
789.3798591,2503522.8423466543
790.6925722999999,2356380.8811159288
792.0094204,2226130.71682236
793.3304079,2110622.710441304
794.6555392000001,2007214.1856742024
795.9848187000001,1913150.76315576
797.3182504,1825846.586434492
798.6558382999999,1742977.564362195
799.9975861,1663641.2775876955
801.3434973,1585741.904297726
802.6935752999999,1510419.1496726065
804.0478232999999,1437564.072187647
805.4062443,1367628.7720231244
806.7688411,1301695.3845820487
808.1356164,1240120.060906805
809.5065726,1183657.899297768
810.881712,1132334.1536698125
812.2610367000001,1085876.9113334347
813.6445485,1043587.3167137622
815.0322493,1004697.6743276272
816.4241404,968409.006576656
817.8202233,933318.2401410504
819.2204991,899116.5702209264
820.6249687999999,864897.1098753907
822.0336331,830232.955694159
823.4464925999999,794968.3611602952
824.8635477000001,759564.773113662
826.2847987,724118.5188902372
827.7102456,689123.515936417
829.1398882,655092.694732433
830.5737261,622111.7128145909
832.0117589,590517.13129382
833.4539857000001,560695.1867076791
834.9004057999999,532372.5912337779
836.3510179,505560.8878744025
837.8058209,479851.1261874744
839.2648132999999,455164.5877465536
840.7279934000001,431060.8606945975
842.1953594,407389.4142823333
843.6669092,384107.6578465593
845.1426408,361062.00322486064
846.6225517000001,338163.1508206549
848.1066392999999,315524.3289994862
849.5949009999999,293031.8247583148
851.0873337999999,271018.12152723875
852.5839347000001,249467.1316309073
854.0847002999999,228473.33789758905
855.5896273,208273.924826504
857.0987119999999,188741.7572744613
858.6119507000001,170146.76381401625
860.1293393999999,152510.40892807208
861.650874,136164.089540954
863.1765502000001,120960.25721488072
864.7063635,107014.17990464352
866.2403094,94338.80468785512
867.778383,82941.22315808732
869.3205793999999,72875.05904464095
870.8668935000001,63972.42718596479
872.4173199999999,56125.52867552271
873.9718536,49276.025414478776
875.5304886,43293.759152407234
877.0932193,38158.80559640124
878.6600399,33686.803771548395
880.2309443,29739.35129457298
881.8059264000001,26120.05528725268
883.3849798,22804.046260033087
884.9680981,19749.757825731333
886.5552747000002,16862.142316048292
888.1465029,14146.787363960331
889.7417757000001,11569.155556185571
891.3410862,9090.57184702946
892.9444273,6825.763449366958
894.5517916000001,4938.185893382236
896.1631719000001,3421.853088742012
897.7785605,2209.524925941165
899.3979498,1303.306992236457
901.0213321,660.9184241964713
902.6486995,256.61736409407644
904.280044,73.1600683633893
905.9153575,34.8168960149347
907.5546319,13.697765457150387
909.1978586,4.806466342541204
910.8450295,-3.375389010866936
912.4961358,-1.945838213316483
914.1511691,2.143651113792037
915.8101205,-5.588724546315235
917.4729813,-0.0847166052511163
919.1397426,-3.16334733574574
920.8103953,0.4415389257802514
922.4849303,4.762325317972104
924.1633386,0.3367390488550703
925.8456109,-2.954393976771409
927.5317378,1.1213101835771502
929.22171,-1.1784167152442042
930.9155179,-0.1959820145603092
932.6131521,2.623685655736
934.3146028,3.508808964553748
936.0198606,-1.4092467872262948
937.7289155,3.357051064217856
939.4417579,-0.1433549982058296
941.1583779,3.4924909085186995
942.8787656,1.7552833197681612
944.6029109,1.0438529115219704
946.3308041,1.61116527028671
948.0624349,-1.6406580822307812
949.7977933,0.0303627546615611
951.5368692,1.0054468414848572
953.2796523,2.8825024563870287
955.0261327,2.038386217692225
956.7762999,-0.9961022088620024
958.5301437,0.3059147389799099
960.2876539,-0.9832630871108788
962.0488201,-2.0465408019560334
963.813632,-3.145091001415989
965.5820793,-1.6500203217407448
967.3541517,-3.931627784697047
969.1298386,2.105018682888055
970.9091298,1.7033514814049606
972.6920149,-2.722886210281976
974.4784835,-0.4818640940231268
976.2685251,-0.3512474515183997
978.0621293,-4.374340339645181
979.8592859,-0.1795326001418748
981.6599843,1.1326973448076738
983.4642142,-1.3699780389486216
985.2719651,1.4194941617328218
987.0832269,-2.0340671427426784
988.897989,0.5951808195257647
990.7162412,0.8251880571268331
992.5379731,0.5697323218961414
994.3631745,-0.1305353913543167
996.191835,-2.5234487474089846
998.0239445,-1.4046168974828863
999.8594926,-1.721517714247634
1001.698469,0.1940873766338494
1003.540864,-2.4828015120146354
1005.386668,-0.2560380296789093
1007.235869,-1.0135027700346122
1009.088458,-1.3882057339090028
1010.944426,-1.4595044843212577
1012.803762,2.695458672122457
1014.666456,-1.7623914860927488
1016.532498,3.563393467847685
1018.401878,0.1326549887647255
1020.274588,2.036567084308109
1022.150616,-4.73185969603898
1024.029953,-1.7019446622146523
1025.912591,-1.3569396311604591
1027.798518,-1.7565954216705633
1029.687726,-0.98573078831702
1031.580205,0.4841937252135517
1033.475945,0.8186167813122637
1035.3749380000002,2.5893260434548018
1037.277175,1.538102537464364
1039.182645,-2.0127188922791954
1041.09134,2.6250894347966467
1043.003251,0.2137404881779373
1044.918368,-0.0573575810121391
1046.836683,0.7728066703273068
1048.758188,3.079024708981095
1050.682872,1.7863592040068756
1052.610728,-0.9875552316154448
1054.541747,0.8450681541709223
1056.4759210000002,0.5606905164531844
1058.41324,2.214747155831732
1060.353697,-0.1533507103623259
1062.297282,-3.1936625878301363
1064.243989,-6.004355355014276
