wave,flux
306.2504509,1473.8009373634245
306.5604242,2130.266712016048
306.871524,2878.831109828376
307.18375710000004,3715.1588566366217
307.4971302,4639.673566071955
307.8116501,5666.8452571576
308.1273236,6084.94648935153
308.4441577,6534.733942845971
308.7621594,6995.513793918952
309.0813356,7445.211376607975
309.4016935,7874.528812519091
309.7232403,8305.969771926126
310.04598300000004,8703.498941616002
310.369929,9090.63352231833
310.6950856,9480.867962596603
311.0214601,9889.215321642165
311.34906010000003,10344.376164282772
311.6778931,10836.378996084752
312.0079665,11375.610005163522
312.33928810000003,12022.707940603555
312.6718655,12728.15600997533
313.00570639999995,13490.036557154415
313.3408189,14295.900194291096
313.6772106,15145.954965943009
314.0148896,15990.945809680672
314.3538639,16849.199985495634
314.6941415,17721.208782076712
315.0357308,18595.362844550546
315.37863980000003,19463.14526740937
315.7228769,20344.42628016738
316.0684504,21260.535541647863
316.4153688,22173.18745863786
316.76364069999994,23096.34193021058
317.1132746,24050.688087402494
317.4642791,25007.085753812516
317.8166631,25985.01642286532
318.1704352,26983.07516377758
318.5256045,28003.99288293147
318.8821799,29006.830708668487
319.2401704,30057.757072824486
319.5995851,31189.686835096465
319.96043330000003,32291.29908191882
320.3227243,33486.26060437163
320.6864673,34716.61636473402
321.0516719,35986.52034692852
321.4183476,37296.47745394947
321.786504,38651.21793117963
322.1561508,40040.65043429536
322.5272977,41495.99451884072
322.8999548,43026.82854617413
323.2741319,44549.6526986433
323.649839,46274.95200013139
324.0270864,48113.8419020052
324.40588419999995,50174.16322955831
324.7862428,52479.112297407766
325.16817260000005,54978.192189947775
325.5516841,58045.82778379707
325.9367879,61562.27995734837
326.32349480000005,65702.85619457158
326.7118154,70483.72058443566
327.1017607,76211.4603250403
327.4933418,83062.16772593326
327.88656960000003,91236.11248852064
328.2814555,100882.60687166966
328.6780106,112203.71252335544
329.0762465,125495.97840186894
329.47617460000004,140869.55124703428
329.8778065,158509.18670122846
330.281154,178466.1324661479
330.6862289,200685.32212592932
331.0930432,224975.06754505367
331.5016088,251020.6581157921
331.911938,278593.16572143853
332.32404310000004,307128.9465800104
332.7379364,336282.30775322195
333.1536305,365431.8198433993
333.571138,394333.773106084
333.9904716,422281.4765493637
334.4116443,449510.68663292256
334.834669,475515.02633813774
335.2595588,500689.2914012442
335.686327,525020.726496155
336.114987,548575.4957034456
336.5455522,571817.1053593056
336.9780363,594927.7604075447
337.41245310000005,618202.6251232525
337.8488164,641818.8826597465
338.28714019999995,665938.6184657475
338.7274388,690490.2771657072
339.1697264,716119.5640696648
339.6140175,742747.9116125875
340.06032660000005,771063.6906100551
340.5086685,801503.5771906009
340.959058,834242.8799837218
341.4115102,870419.4223679879
341.8660403,909908.818304328
342.32266339999995,952891.499228464
342.7813952,999387.6938625248
343.24225110000003,1048823.5777649835
343.70524710000007,1099884.1222551009
344.17039889999995,1151206.1524664068
344.6377228,1201525.8895521143
345.1072349,1248901.528334414
345.5789517,1291804.8667733592
346.0528897,1329297.7665494776
346.5290657,1361247.349952956
347.0074967,1388181.9686624203
347.48819960000003,1411260.3680646913
347.9711917,1432621.836346329
348.45649060000005,1454478.1488835826
348.9441137,1479313.0974201232
349.434079,1509290.232609541
349.9264043,1546083.024251272
350.4211078,1590000.887120107
350.9182079,1640333.0808140791
351.4177232,1695716.6762035869
351.9196722,1752783.3210932135
352.42407410000004,1808240.8829579295
352.9309478,1858619.061770646
353.4403127,1899950.8363362383
353.95218839999995,1930358.2329308784
354.4665945,1946991.7417955368
354.983551,1949479.234485476
355.503078,1937973.561417979
356.025196,1913612.85896412
356.5499253,1879127.3641307864
357.077287,1837220.477030292
357.6073018,1790429.712854016
358.1399912,1742319.7051744938
358.6753765,1696041.6487233783
359.2134795,1653581.065785888
359.754322,1617695.513112358
360.2979263,1590169.3993671678
360.8443147,1571535.9300497398
361.3935098,1562450.5744728954
361.9455346,1562737.9826597874
362.5004122,1571577.3733387482
363.058166,1587189.170465213
363.61881960000005,1607670.6939485308
364.1823969,1630915.500980992
364.7489221,1654475.4786592878
365.3184196,1676235.1363589354
365.8909141,1694266.6153446196
366.4664305,1707634.2923316448
367.0449943,1714975.0762423084
367.6266307,1717283.7152733337
368.2113658,1714546.4440609484
368.7992255,1707583.2927337934
369.3902363,1697659.6102742094
369.9844249,1685388.8094085478
370.5818182,1671785.4964493369
371.1824436,1657249.7049579187
371.7863286000001,1642291.2598767304
372.3935012,1626365.6743941847
373.0039896,1610123.467439231
373.6178223,1593288.5722556491
374.2350283,1576778.8799033202
374.8556368,1561350.1014975738
375.4796772,1549010.3746577252
376.1071796,1541030.2203319946
376.7381741,1539857.9577207754
377.3726913,1547971.3037579071
378.0107622,1567202.3396571986
378.652418,1598663.0454156676
379.2976904,1642908.084845841
379.9466115,1700243.2492067183
380.5992136,1769848.2126061523
381.2555296,1849322.5903513625
381.9155926,1936675.254763007
382.5794362,2030583.4793056576
383.2470943,2128164.599555697
383.9186014,2228945.446168575
384.5939922,2332023.3203035085
385.2733019,2439807.7519320725
385.9565661,2553705.8665880105
386.6438209,2676997.766849915
387.3351027,2814369.7771154223
388.0304484,2970031.9382560663
388.7298955,3148371.784909704
389.4334817,3351101.971595679
390.1412452,3579701.589653306
390.853225,3833761.481655095
391.56946,4105346.126099287
392.2899901,4386494.751836795
393.0148555,4667969.212986499
393.7440968,4939926.063962021
394.4777551,5192440.186273833
395.2158722,5416955.513975807
395.9584903,5605018.135611606
396.7056521,5752523.562257563
397.457401,5862678.799590655
398.2137806,5940940.192175143
398.9748353,5991646.02922394
399.7406101,6021615.025259092
400.5111505,6036653.32777629
401.2865024,6040851.940479457
402.0667126,6041277.471666691
402.8518283,6041304.131988666
403.6418973,6041317.2827217365
404.436968,6041549.275560391
405.2370896,6041251.315555492
406.0423117,6041673.866900069
406.8526847,6041625.932054578
407.66825960000006,6041658.000903834
408.4890879,6040994.117203182
409.3152221,6041340.634401014
410.1467152,6041290.625974868
410.9836208,6041006.894801787
411.8259934,6041383.571143539
412.673888,6041496.6997714285
413.5273605,6041270.955169507
414.38646760000006,6041610.855136308
415.2512664,6041626.374044723
416.1218152,6041046.85939999
416.9981727,6041516.809016705
417.8803987,6041505.28309288
418.7685535,6041328.22097649
419.6626985,6041236.6461775685
420.5628957,6041214.302651192
421.4692081,6041409.99590438
422.3816994,6040966.410835988
423.3004343,6041718.087965933
424.2254783,6040883.530783294
425.1568978,6041289.832906768
426.0947602,6041780.584824648
427.0391337,6041337.408776135
427.9900874,6041441.5021708375
428.9476917,6041334.428921377
429.9120175,6041528.603920357
430.8831369,6041347.091701632
431.8611232,6040953.775137127
432.8460504,6041774.110193088
433.8379937,6041754.665178337
434.8370293,6041531.961554561
435.8432345,6041706.966508099
436.8566878,6041256.37535324
437.8774686,6041093.286496832
438.9056575,6041554.505489407
439.9413364,6041625.472119697
440.9845882,6041488.894846916
442.035497,6041370.392686807
443.0941482,6041560.756393828
444.1606283,6041097.497755439
445.23502520000005,6042026.980398827
446.317428,6041315.473352808
447.407927,6041535.377074323
448.5066141,6041268.64285409
449.6135822,6041153.642004531
450.7289258,6041578.258729617
451.85274060000006,6041152.562559497
452.9851239,6041448.10391359
454.1261744,6041471.202298656
455.2759921,6041718.647225468
456.4346788,6041242.713635089
457.6023374,6041584.622968137
458.7790727,6041404.076525806
459.9649909,6041827.15600182
461.1601998,6041354.699533759
462.364809,6040936.88092778
463.5789295,6040651.415522495
464.8026741000001,6041614.995689807
466.0361575,6041533.957510392
467.2794956999999,6041305.633298071
468.5328070000001,6041200.546004636
469.7962111000001,6041042.126493141
471.0698299,6041726.5422791215
472.3537868,6041153.34500791
473.6482074,6041140.466410252
474.9532192,6041440.935297338
476.2689517,6041432.990355982
477.5955362,6041468.265144679
478.93310639999993,6041158.016105983
480.2817979,6041434.756146313
481.6417484,6041601.160368113
483.01309800000007,6041476.556334096
484.3959889,6041604.956381097
485.7905654,6041567.51175521
487.1969743,6041335.61866655
488.6153648,6041029.466042662
490.0458884,6041399.860538276
491.488699,6041751.0675986735
492.943953,6042187.453375633
494.4118094,6041194.115787585
495.8924299,6041754.73622686
497.3859785,6040706.957971248
498.8926222,6041812.572700605
500.4125306,6041495.607480482
501.9458762,6041714.810846225
503.4928341,6041612.16558248
505.0535827,6041370.904648958
506.628303,6041365.422767272
508.2171791999999,6041252.940756911
509.8203986,6041166.917734484
511.4381515,6041284.299145407
513.0706316000001,6041417.165887856
514.7180356,6041779.197758095
516.3805639,6041609.371415088
518.0584200000001,6041188.757297134
519.7518110000001,6041715.638618425
521.4609475999999,6041410.360494523
523.186044,6041697.215484332
524.927318,6041289.171212412
526.6849915,6041214.171517705
528.45929,6041151.000414753
530.2504428000001,6041395.659132249
532.0586836,6041854.702016182
533.8842498,6041422.357438149
535.7273833,6041318.742094938
537.5883299,6041418.231174554
539.46734,6041213.289371111
541.3646685,6041651.179420591
543.2805745000001,6041408.530007624
545.2153222000001,6041538.690415228
547.1691801,6041469.312591945
549.1424218999999,6041757.524995736
551.1353259,6041590.495960643
553.1481756000001,6041470.945645894
555.1812597,6041601.30117936
557.2348721,6041624.194438918
559.3093121,6041437.7922325535
561.4048845,6041375.281962223
563.5218996,6041166.391994445
565.6606737000001,6041424.069080708
567.8215287,6041922.253760167
570.0047927,6041771.676364755
572.2107997,6041275.164565803
574.4398902,6041340.724205422
576.692411,6041591.558302628
578.9687155,6041193.257253272
581.2691637,6041445.426467243
583.5941226,6041667.162744905
585.943966,6041641.881517323
588.3190752,6041430.533015169
590.7198384999999,6041187.172639765
593.1466518,6041431.931654324
595.5999188999999,6041581.625742867
598.0800512,6041557.401739743
600.5874682,6041487.318926468
603.1225977000001,6041205.602275115
605.6858758999999,6041543.496363127
608.2777476,6041569.2548106285
610.8986664,6040816.958060971
613.549095,6041481.894159206
616.2295054,6040881.89928331
618.940379,6041493.578838739
621.6822068,6041124.107634949
624.4554901,6040868.27647073
627.2607402000001,6040954.885978869
630.0984786,6041524.504378793
632.9692378999999,6040106.753593967
635.8735614,6040603.84130787
638.8120038,6040446.365415373
641.7851312999999,6040886.026144628
644.7935217999999,6040697.553195783
647.8377654,6041579.815069403
650.9184646000001,6041630.425903183
654.0362346,6039915.761760751
657.1917038,6041536.839031576
660.3855139,6042559.754054382
663.6183202999999,6041983.416202593
666.8907926,6040805.089809038
670.2036149,6043086.329647482
673.557486,6042926.2060460085
676.6172101,6041406.773123708
676.9531202000001,6039714.449110082
677.5599033,6041372.668337625
678.5056492000001,6041317.116322317
679.4544612999999,6041289.512202607
680.3912472999999,6041399.815728199
680.4063535,6041134.786884902
681.3613392999999,6041533.216924714
682.3194324,6041266.774412323
683.2806465,6041136.6792547135
684.2449952000001,6041656.735559247
685.2124921,6041453.935218197
686.1831509,6041477.807051958
687.1569850999999,6041447.407197123
688.1340083,6040951.0301357685
689.1142341,6041551.977994118
690.097676,6041295.175980351
691.0843474999999,6041496.867909148
692.0742622,6041330.458684293
693.0674334,6041360.913656178
694.0638748,6041843.168072684
695.0635996,6041188.541090461
696.0666212,6041507.856637272
697.0729531000001,6041130.160638803
698.0826086,6041226.637563645
699.0956008999999,6041517.02129734
700.1119432999999,6041433.962947777
701.1316491,6041447.719601933
702.1547314,6041815.003225118
703.1812034,6040981.717873668
704.2110782000001,6040967.6351438975
705.2443688999999,6041738.733177078
706.2810885,6041548.596795866
707.3212499,6041271.804002987
708.3648661000001,6041728.899340636
709.41195,6041584.068917628
710.4625143999999,6041240.915375478
711.5165721,6041437.214353087
712.5741357,6041658.888258887
713.6352181,6041853.817453749
714.6998317000001,6041671.885354993
715.7679891,6041130.504671548
716.8397027999999,6041436.080231153
717.9149852,6041318.773342314
718.9938487000001,6041110.558645267
720.0763055,6041722.756696959
721.162368,6041509.564044408
722.2520481,6041873.071762422
723.3453581,6041526.665576748
724.4423098,6041324.880358534
725.5429153,6041484.095598589
726.6471863,6041026.719533288
727.7551346,6041408.608434394
728.866772,6041784.03417271
729.9821099,6041725.843732835
731.1011599,6041513.788835146
732.2239335,6041210.168393136
733.3504419,6041645.331585477
734.4806963999999,6040885.036336835
735.6147081,6041689.546074187
736.7524882,6041305.1218696935
737.8940474,6041200.265325408
739.0393967,6041800.426085106
740.1885467999999,6041282.587589228
741.3415084,6041523.938211418
742.498292,6041349.3987891525
743.658908,6041682.543470183
744.8233667999999,6041026.177558086
745.9916785,6041609.620689474
747.1638532000001,6041236.894622227
748.3399009,6041267.287163357
749.5198315,6040997.277771267
750.7036546,6041894.717999257
751.89138,6041019.960727064
753.0830171,6041294.731642417
754.2785752999999,6041196.609560045
755.4780638,6040896.320479778
756.6814917,6041697.931365322
757.8888678999999,6041314.892698192
759.1002014999999,6041291.76002809
760.3155009,6041289.917748722
761.5347749,6036780.657062923
762.7580318,6023964.05980649
763.98528,5997712.657800937
765.2165276000001,5955951.308974412
766.4517825,5895347.040713949
767.6910527000001,5813382.031961722
768.9343458999999,5705559.672415217
770.1816697,5569875.59638177
771.4330313999999,5410181.127787641
772.6884382999999,5231843.763107789
773.9478975,5039085.463048446
775.211416,4832980.524139859
776.4790005,4616379.994471286
777.7506578,4391418.445752092
779.0263942,4162201.13336868
780.3062162,3932472.826492075
781.5901297,3704004.682353642
782.8781409,3478031.841765556
784.1702554999999,3257889.636634962
785.4664793,3047456.7490209923
786.7668176,2849790.805837604
788.0712758,2667880.449633716
789.3798591,2503522.8423466543
790.6925722999999,2356380.8811159288
792.0094204,2226130.71682236
793.3304079,2110622.710441304
794.6555392000001,2007214.1856742024
795.9848187000001,1913150.76315576
797.3182504,1825846.586434492
798.6558382999999,1742977.564362195
799.9975861,1663641.2775876955
801.3434973,1585741.904297726
802.6935752999999,1510419.1496726065
804.0478232999999,1437564.072187647
805.4062443,1367628.7720231244
806.7688411,1301695.3845820487
808.1356164,1240120.060906805
809.5065726,1183657.899297768
810.881712,1132334.1536698125
812.2610367000001,1085876.9113334347
813.6445485,1043587.3167137622
815.0322493,1004697.6743276272
816.4241404,968409.006576656
817.8202233,933318.2401410504
819.2204991,899116.5702209264
820.6249687999999,864897.1098753907
822.0336331,830232.955694159
823.4464925999999,794968.3611602952
824.8635477000001,759564.773113662
826.2847987,724118.5188902372
827.7102456,689123.515936417
829.1398882,655092.694732433
830.5737261,622111.7128145909
832.0117589,590517.13129382
833.4539857000001,560695.1867076791
834.9004057999999,532372.5912337779
836.3510179,505560.8878744025
837.8058209,479851.1261874744
839.2648132999999,455164.5877465536
840.7279934000001,431060.8606945975
842.1953594,407389.4142823333
843.6669092,384107.6578465593
845.1426408,361062.00322486064
846.6225517000001,338163.1508206549
848.1066392999999,315524.3289994862
849.5949009999999,293031.8247583148
851.0873337999999,271018.12152723875
852.5839347000001,249467.1316309073
854.0847002999999,228473.33789758905
855.5896273,208273.924826504
857.0987119999999,188741.7572744613
858.6119507000001,170146.76381401625
860.1293393999999,152510.40892807208
861.650874,136164.089540954
863.1765502000001,120960.25721488072
864.7063635,107014.17990464352
866.2403094,94338.80468785512
867.778383,82941.22315808732
869.3205793999999,72875.05904464095
870.8668935000001,63972.42718596479
872.4173199999999,56125.52867552271
873.9718536,49276.025414478776
875.5304886,43293.759152407234
877.0932193,38158.80559640124
878.6600399,33686.803771548395
880.2309443,29739.35129457298
881.8059264000001,26120.05528725268
883.3849798,22804.046260033087
884.9680981,19749.757825731333
886.5552747000002,16862.142316048292
888.1465029,14146.787363960331
889.7417757000001,11569.155556185571
891.3410862,9090.57184702946
892.9444273,6825.763449366958
894.5517916000001,4938.185893382236
896.1631719000001,3421.853088742012
897.7785605,2209.524925941165
899.3979498,1303.306992236457
901.0213321,660.9184241964713
902.6486995,256.61736409407644
904.280044,73.1600683633893
905.9153575,34.8168960149347
907.5546319,13.697765457150387
909.1978586,4.806466342541204
910.8450295,-3.375389010866936
912.4961358,-1.945838213316483
914.1511691,2.143651113792037
915.8101205,-5.588724546315235
917.4729813,-0.0847166052511163
919.1397426,-3.16334733574574
920.8103953,0.4415389257802514
922.4849303,4.762325317972104
924.1633386,0.3367390488550703
925.8456109,-2.954393976771409
927.5317378,1.1213101835771502
929.22171,-1.1784167152442042
930.9155179,-0.1959820145603092
932.6131521,2.623685655736
934.3146028,3.508808964553748
936.0198606,-1.4092467872262948
937.7289155,3.357051064217856
939.4417579,-0.1433549982058296
941.1583779,3.4924909085186995
942.8787656,1.7552833197681612
944.6029109,1.0438529115219704
946.3308041,1.61116527028671
948.0624349,-1.6406580822307812
949.7977933,0.0303627546615611
951.5368692,1.0054468414848572
953.2796523,2.8825024563870287
955.0261327,2.038386217692225
956.7762999,-0.9961022088620024
958.5301437,0.3059147389799099
960.2876539,-0.9832630871108788
962.0488201,-2.0465408019560334
963.813632,-3.145091001415989
965.5820793,-1.6500203217407448
967.3541517,-3.931627784697047
969.1298386,2.105018682888055
970.9091298,1.7033514814049606
972.6920149,-2.722886210281976
974.4784835,-0.4818640940231268
976.2685251,-0.3512474515183997
978.0621293,-4.374340339645181
979.8592859,-0.1795326001418748
981.6599843,1.1326973448076738
983.4642142,-1.3699780389486216
985.2719651,1.4194941617328218
987.0832269,-2.0340671427426784
988.897989,0.5951808195257647
990.7162412,0.8251880571268331
992.5379731,0.5697323218961414
994.3631745,-0.1305353913543167
996.191835,-2.5234487474089846
998.0239445,-1.4046168974828863
999.8594926,-1.721517714247634
1001.698469,0.1940873766338494
1003.540864,-2.4828015120146354
1005.386668,-0.2560380296789093
1007.235869,-1.0135027700346122
1009.088458,-1.3882057339090028
1010.944426,-1.4595044843212577
1012.803762,2.695458672122457
1014.666456,-1.7623914860927488
1016.532498,3.563393467847685
1018.401878,0.1326549887647255
1020.274588,2.036567084308109
1022.150616,-4.73185969603898
1024.029953,-1.7019446622146523
1025.912591,-1.3569396311604591
1027.798518,-1.7565954216705633
1029.687726,-0.98573078831702
1031.580205,0.4841937252135517
1033.475945,0.8186167813122637
1035.3749380000002,2.5893260434548018
1037.277175,1.538102537464364
1039.182645,-2.0127188922791954
1041.09134,2.6250894347966467
1043.003251,0.2137404881779373
1044.918368,-0.0573575810121391
1046.836683,0.7728066703273068
1048.758188,3.079024708981095
1050.682872,1.7863592040068756
1052.610728,-0.9875552316154448
1054.541747,0.8450681541709223
1056.4759210000002,0.5606905164531844
1058.41324,2.214747155831732
1060.353697,-0.1533507103623259
1062.297282,-3.1936625878301363
1064.243989,-6.004355355014276
1066.193809,1.6975392031795646
1068.146734,-1.8391697537208151
