wave,flux
306.2504509,372.2635776470393
306.5604242,529.5943510107886
306.871524,700.8601773118866
307.18375710000004,893.1394371745257
307.4971302,1108.13213520731
307.8116501,1323.3148987883255
308.1273236,1389.0905617904846
308.4441577,1457.4825222243326
308.7621594,1525.754874768775
309.0813356,1598.2586995159224
309.4016935,1677.6429144830545
309.7232403,1760.6452634987045
310.04598300000004,1845.3689856980784
310.369929,1934.7025980144465
310.6950856,2014.2060752823693
311.0214601,2101.8742145172
311.34906010000003,2192.0166842128283
311.6778931,2285.5970746131634
312.0079665,2379.486273240546
312.33928810000003,2480.826726247244
312.6718655,2588.652747861875
313.00570639999995,2698.555854933223
313.3408189,2814.3149410584588
313.6772106,2941.9434727547227
314.0148896,3063.4945037581083
314.3538639,3202.6095413483795
314.6941415,3344.1387729581243
315.0357308,3498.442106927082
315.37863980000003,3657.869043490288
315.7228769,3828.726816418461
316.0684504,4029.1416931122826
316.4153688,4231.463112576492
316.76364069999994,4449.328168089815
317.1132746,4679.777890371079
317.4642791,4938.361054363473
317.8166631,5198.320049274764
318.1704352,5470.562066290119
318.5256045,5747.208370903732
318.8821799,6051.209638987576
319.2401704,6350.787804662965
319.5995851,6654.890647232278
319.96043330000003,6954.663732059127
320.3227243,7264.719647033581
320.6864673,7573.959680348606
321.0516719,7881.969480108231
321.4183476,8199.92298158144
321.786504,8514.874983654396
322.1561508,8845.781398506835
322.5272977,9185.968158828717
322.8999548,9539.02219475609
323.2741319,9915.742760015162
323.649839,10316.486718993265
324.0270864,10745.599981877258
324.40588419999995,11228.0529405139
324.7862428,11791.028229813724
325.16817260000005,12442.432565842617
325.5516841,13214.174600586726
325.9367879,14093.901239982708
326.32349480000005,15155.718933689348
326.7118154,16431.491462438335
327.1017607,17896.188609925634
327.4933418,19638.587642029008
327.88656960000003,21589.44676278914
328.2814555,23851.481020427305
328.6780106,26370.289946593824
329.0762465,29193.960742041974
329.47617460000004,32310.330114808326
329.8778065,35741.2650849262
330.281154,39507.773704314415
330.6862289,43619.07039311578
331.0930432,48100.68110668472
331.5016088,52990.72441869505
331.911938,58376.97933657076
332.32404310000004,64189.43282563918
332.7379364,70486.94222292372
333.1536305,77283.81314422298
333.571138,84575.98304410641
333.9904716,92291.27456592518
334.4116443,100357.50673963924
334.834669,108713.96969750935
335.2595588,117256.6221910842
335.686327,125841.47466874294
336.114987,134402.43430179046
336.5455522,142796.9107679181
336.9780363,150966.61026612954
337.41245310000005,158826.67435148187
337.8488164,166398.15613395607
338.28714019999995,173523.21283382954
338.7274388,180252.99338165493
339.1697264,186566.30750122835
339.6140175,192418.4132329244
340.06032660000005,197770.2721499129
340.5086685,202629.7446343691
340.959058,206907.03619187948
341.4115102,210659.7293406833
341.8660403,213787.14013146303
342.32266339999995,216366.9435690576
342.7813952,218413.82235226623
343.24225110000003,220081.39608420504
343.70524710000007,221398.8440567488
344.17039889999995,222548.77581361905
344.6377228,223720.45344801943
345.1072349,224989.14381778296
345.5789517,226487.1525249421
346.0528897,228259.20339061925
346.5290657,230396.27312890333
347.0074967,232789.6249927776
347.48819960000003,235463.5579488732
347.9711917,238270.9859476713
348.45649060000005,241278.82990510357
348.9441137,244296.0892994413
349.434079,247448.53730878464
349.9264043,250685.7987819451
350.4211078,254102.08487425683
350.9182079,257836.0722178389
351.4177232,262051.3106154884
351.9196722,266805.26230116416
352.42407410000004,272324.94784950174
352.9309478,278728.20055257657
353.4403127,286199.5984078899
353.95218839999995,294832.8460093817
354.4665945,304775.97048030444
354.983551,316019.2664926255
355.503078,328650.10227272986
356.025196,342715.8024842771
356.5499253,358058.80497586256
357.077287,374441.0979622538
357.6073018,391771.6773773267
358.1399912,409438.11952087854
358.6753765,427260.1232024776
359.2134795,444612.7416002964
359.754322,461011.7171243813
360.2979263,475984.6965038676
360.8443147,489108.0201696576
361.3935098,500195.23698541534
361.9455346,508774.18225848686
362.5004122,515011.2631663589
363.058166,518757.19093458826
363.61881960000005,520292.274102096
364.1823969,519948.72124427033
364.7489221,517897.2456373786
365.3184196,514582.5162530624
365.8909141,510374.2041352311
366.4664305,505552.6573078276
367.0449943,500633.2020825274
367.6266307,495805.5857541413
368.2113658,491278.5715014122
368.7992255,487397.9429175657
369.3902363,484162.9350988295
369.9844249,481933.8723478814
370.5818182,480600.1286378669
371.1824436,480411.73608052026
371.7863286000001,481285.0326951895
372.3935012,483062.6778268828
373.0039896,485760.2819992445
373.6178223,488955.4440728591
374.2350283,492404.3709613798
374.8556368,495870.8369549553
375.4796772,498917.7222346182
376.1071796,501216.56659998297
376.7381741,502724.5291359412
377.3726913,503225.0632292056
378.0107622,502932.3643397183
378.652418,502135.2733767317
379.2976904,501453.9424156615
379.9466115,501414.532967269
380.5992136,502868.6844370124
381.2555296,506577.4889390087
381.9155926,513215.75385009847
382.5794362,523480.2908159602
383.2470943,538137.3592957953
383.9186014,557306.3575177517
384.5939922,581070.2680331451
385.2733019,609538.7830488721
385.9565661,642434.887604907
386.6438209,679304.7362044785
387.3351027,719617.8140091859
388.0304484,763249.0258255979
388.7298955,809273.3803345726
389.4334817,857262.1529306284
390.1412452,907625.5668017084
390.853225,959569.8662243716
391.56946,1012894.7298087178
392.2899901,1066947.5591442722
393.0148555,1121321.1077515995
393.7440968,1175278.7641833455
394.4777551,1228024.7103448494
395.2158722,1279676.7197016107
395.9584903,1328023.694264349
396.7056521,1372822.6560546209
397.457401,1413735.7411735868
398.2137806,1450532.6214622606
398.9748353,1483261.7755179906
399.7406101,1512069.652502811
400.5111505,1536294.6083054792
401.2865024,1556100.6553610864
402.0667126,1571992.9199688314
402.8518283,1583898.0849797984
403.6418973,1591777.0556049612
404.436968,1595868.3296541222
405.2370896,1596252.3781085056
406.0423117,1594103.3944872883
406.8526847,1590219.7409577612
407.66825960000006,1586091.8901482609
408.4890879,1583818.367655255
409.3152221,1584567.9889759177
410.1467152,1590395.4812935963
410.9836208,1603301.2381582712
411.8259934,1624190.1689120908
412.673888,1654106.3028332298
413.5273605,1693576.4449953346
414.38646760000006,1742887.908637791
415.2512664,1801530.8383002712
416.1218152,1869266.77543472
416.9981727,1946170.971075029
417.8803987,2031496.263997936
418.7685535,2125767.734225832
419.6626985,2228641.835933308
420.5628957,2340971.7022539023
421.4692081,2461786.486403284
422.3816994,2591607.098731776
423.3004343,2728948.277709568
424.2254783,2872516.4380747336
425.1568978,3019935.147222351
426.0947602,3168775.604380512
427.0391337,3314666.7376944413
427.9900874,3454977.88598704
428.9476917,3584958.606019225
429.9120175,3701882.852224586
430.8831369,3802885.161483741
431.8611232,3887953.860784704
432.8460504,3956367.5748424376
433.8379937,4010382.271982088
434.8370293,4052838.967305602
435.8432345,4088456.6002956494
436.8566878,4121807.9245335967
437.8774686,4157852.10591152
438.9056575,4201728.211225059
439.9413364,4256782.979898199
440.9845882,4326209.573932371
442.035497,4410856.687453431
443.0941482,4512013.015911398
444.1606283,4628116.785755971
445.23502520000005,4758201.4503984125
446.317428,4900597.699440718
447.407927,5048321.811599426
448.5066141,5198599.564251032
449.6135822,5345544.686745931
450.7289258,5486921.399470775
451.85274060000006,5617073.772273203
452.9851239,5731299.891138878
454.1261744,5825912.6036848165
455.2759921,5899682.672059028
456.4346788,5954697.5731978025
457.6023374,5993919.419603553
458.7790727,6019244.797800313
459.9649909,6033719.304363557
461.1601998,6040040.348093732
462.364809,6041314.541798512
463.5789295,6041195.6871660985
464.8026741000001,6041622.723657504
466.0361575,6041186.2614077935
467.2794956999999,6040923.449163037
468.5328070000001,6041528.943848974
469.7962111000001,6041251.060732967
471.0698299,6041167.809449996
472.3537868,6041450.33060655
473.6482074,6041370.122429064
474.9532192,6041518.088153277
476.2689517,6041408.076856587
477.5955362,6040969.134492372
478.93310639999993,6041485.679968801
480.2817979,6041563.190704472
481.6417484,6041399.259076566
483.01309800000007,6041916.725982436
484.3959889,6040848.357720013
485.7905654,6041633.3691311125
487.1969743,6041526.356690792
488.6153648,6041339.659662814
490.0458884,6041315.010488387
491.488699,6041352.179377588
492.943953,6041227.476159252
494.4118094,6041063.855897987
495.8924299,6041477.816200014
497.3859785,6041583.52289936
498.8926222,6041391.319718403
500.4125306,6041928.840318055
501.9458762,6041340.5805757325
503.4928341,6041028.539697395
505.0535827,6041005.97153498
506.628303,6041186.872796174
508.2171791999999,6041300.665973512
509.8203986,6041565.093205173
511.4381515,6041521.175928908
513.0706316000001,6041181.641144873
514.7180356,6041357.480251279
516.3805639,6041605.91875043
518.0584200000001,6041244.538187986
519.7518110000001,6041417.540673376
521.4609475999999,6041662.834689426
523.186044,6041395.384754739
524.927318,6041503.716778387
526.6849915,6041785.969269271
528.45929,6041155.432815304
530.2504428000001,6041471.699668587
532.0586836,6041217.068703828
533.8842498,6041716.506308773
535.7273833,6041673.86202888
537.5883299,6041533.399756008
539.46734,6041616.292565198
541.3646685,6041922.1513680015
543.2805745000001,6041398.062527618
545.2153222000001,6041384.751724947
547.1691801,6041334.251201966
549.1424218999999,6041780.083967162
551.1353259,6041285.38366404
553.1481756000001,6041361.921622915
555.1812597,6041088.411994913
557.2348721,6041725.351526965
559.3093121,6041072.340576422
561.4048845,6041169.70065995
563.5218996,6041442.377594368
565.6606737000001,6041392.628128162
567.8215287,6041634.283869727
570.0047927,6041430.578687506
572.2107997,6041101.299423192
574.4398902,6041408.084568897
576.692411,6041617.824995653
578.9687155,6041440.835021439
581.2691637,6041357.261340569
583.5941226,6041608.171737922
585.943966,6041448.057141619
588.3190752,6041199.538472405
590.7198384999999,6041475.24846471
593.1466518,6041229.984766154
595.5999188999999,6041556.175187672
598.0800512,6041226.5975840585
600.5874682,6041631.286229575
603.1225977000001,6040951.159347803
605.6858758999999,6041540.589819312
608.2777476,6041313.183298082
610.8986664,6041714.288421418
613.549095,6041511.3452573735
616.2295054,6041413.959969877
618.940379,6042021.362930499
621.6822068,6041792.973740413
624.4554901,6040069.640135816
627.2607402000001,6039933.540463842
630.0984786,6041423.405674391
632.9692378999999,6040599.829257019
635.8735614,6041120.321518814
638.8120038,6040215.184996388
641.7851312999999,6043728.500920653
644.7935217999999,6041765.630283315
652.2683836,6041758.53502382
653.1338237000001,6041033.48180772
654.0019482999999,6041398.277759437
654.8727708,6041174.869245926
655.7463047,6041098.4605098935
656.6225636,6041247.998199501
657.501561,6041213.102491157
658.3833105,6041675.173506688
659.2678255,6041354.862794315
660.1551197000001,6041644.441429223
661.0452068,6041939.220913758
661.9381002,6041391.46357243
662.8338137000001,6041566.783747729
663.7323607999999,6041506.331844827
664.6337553,6041395.154352518
665.5380107000001,6041174.928814688
666.4451407,6041789.567108886
667.355159,6041768.990847449
668.2680793,6041025.600701578
669.1839152000001,6041878.621230503
670.1026805,6041536.203329182
671.0243889,6041817.049782247
671.949054,6041288.980459927
672.8766895,6041271.116313018
673.8073092,6041228.570076198
674.7409267,6041021.87285016
675.6775557999999,6041509.762488304
676.6172101,6041406.773123708
677.5599033,6041372.668337625
678.5056492000001,6041317.116322317
679.4544612999999,6041289.512202607
680.4063535,6041134.786884902
681.3613392999999,6041533.216924714
682.3194324,6041266.774412323
683.2806465,6041136.6792547135
684.2449952000001,6041656.735559247
685.2124921,6041453.935218197
686.1831509,6041477.807051958
687.1569850999999,6041447.407197123
688.1340083,6040951.0301357685
689.1142341,6041551.977994118
690.097676,6041295.175980351
691.0843474999999,6041496.867909148
692.0742622,6041330.458684293
693.0674334,6041360.913656178
694.0638748,6041843.168072684
695.0635996,6041188.541090461
696.0666212,6041507.856637272
697.0729531000001,6041130.160638803
698.0826086,6041226.637563645
699.0956008999999,6041517.02129734
700.1119432999999,6041433.962947777
701.1316491,6041447.719601933
702.1547314,6041815.003225118
703.1812034,6040981.717873668
704.2110782000001,6040967.6351438975
705.2443688999999,6041738.733177078
706.2810885,6041548.596795866
707.3212499,6041271.804002987
708.3648661000001,6041728.899340636
709.41195,6041584.068917628
710.4625143999999,6041240.915375478
711.5165721,6041437.214353087
712.5741357,6041658.888258887
713.6352181,6041853.817453749
714.6998317000001,6041671.885354993
715.7679891,6041130.504671548
716.8397027999999,6041436.080231153
717.9149852,6041318.773342314
718.9938487000001,6041110.558645267
720.0763055,6041722.756696959
721.162368,6041509.564044408
722.2520481,6041873.071762422
723.3453581,6041526.665576748
724.4423098,6041324.880358534
725.5429153,6041484.095598589
726.6471863,6041026.719533288
727.7551346,6041408.608434394
728.866772,6041784.03417271
729.9821099,6041725.843732835
731.1011599,6041513.788835146
732.2239335,6041210.168393136
733.3504419,6041645.331585477
734.4806963999999,6040885.036336835
735.6147081,6041689.546074187
736.7524882,6041305.1218696935
737.8940474,6041200.265325408
739.0393967,6041800.426085106
740.1885467999999,6041282.587589228
741.3415084,6041523.938211418
742.498292,6041349.3987891525
743.658908,6041682.543470183
744.8233667999999,6041026.177558086
745.9916785,6041609.620689474
747.1638532000001,6041236.894622227
748.3399009,6041267.287163357
749.5198315,6040997.277771267
750.7036546,6041894.717999257
751.89138,6041019.960727064
753.0830171,6041294.731642417
754.2785752999999,6041196.609560045
755.4780638,6040896.320479778
756.6814917,6041697.931365322
757.8888678999999,6041314.892698192
759.1002014999999,6041291.76002809
760.3155009,6041289.917748722
761.5347749,6036780.657062923
762.7580318,6023964.05980649
763.98528,5997712.657800937
765.2165276000001,5955951.308974412
766.4517825,5895347.040713949
767.6910527000001,5813382.031961722
768.9343458999999,5705559.672415217
770.1816697,5569875.59638177
771.4330313999999,5410181.127787641
772.6884382999999,5231843.763107789
773.9478975,5039085.463048446
775.211416,4832980.524139859
776.4790005,4616379.994471286
777.7506578,4391418.445752092
779.0263942,4162201.13336868
780.3062162,3932472.826492075
781.5901297,3704004.682353642
782.8781409,3478031.841765556
784.1702554999999,3257889.636634962
785.4664793,3047456.7490209923
786.7668176,2849790.805837604
788.0712758,2667880.449633716
789.3798591,2503522.8423466543
790.6925722999999,2356380.8811159288
792.0094204,2226130.71682236
793.3304079,2110622.710441304
794.6555392000001,2007214.1856742024
795.9848187000001,1913150.76315576
797.3182504,1825846.586434492
798.6558382999999,1742977.564362195
799.9975861,1663641.2775876955
801.3434973,1585741.904297726
802.6935752999999,1510419.1496726065
804.0478232999999,1437564.072187647
805.4062443,1367628.7720231244
806.7688411,1301695.3845820487
808.1356164,1240120.060906805
809.5065726,1183657.899297768
810.881712,1132334.1536698125
812.2610367000001,1085876.9113334347
813.6445485,1043587.3167137622
815.0322493,1004697.6743276272
816.4241404,968409.006576656
817.8202233,933318.2401410504
819.2204991,899116.5702209264
820.6249687999999,864897.1098753907
822.0336331,830232.955694159
823.4464925999999,794968.3611602952
824.8635477000001,759564.773113662
826.2847987,724118.5188902372
827.7102456,689123.515936417
829.1398882,655092.694732433
830.5737261,622111.7128145909
832.0117589,590517.13129382
833.4539857000001,560695.1867076791
834.9004057999999,532372.5912337779
836.3510179,505560.8878744025
837.8058209,479851.1261874744
839.2648132999999,455164.5877465536
840.7279934000001,431060.8606945975
842.1953594,407389.4142823333
843.6669092,384107.6578465593
845.1426408,361062.00322486064
846.6225517000001,338163.1508206549
848.1066392999999,315524.3289994862
849.5949009999999,293031.8247583148
851.0873337999999,271018.12152723875
852.5839347000001,249467.1316309073
854.0847002999999,228473.33789758905
855.5896273,208273.924826504
857.0987119999999,188741.7572744613
858.6119507000001,170146.76381401625
860.1293393999999,152510.40892807208
861.650874,136164.089540954
863.1765502000001,120960.25721488072
864.7063635,107014.17990464352
866.2403094,94338.80468785512
867.778383,82941.22315808732
869.3205793999999,72875.05904464095
870.8668935000001,63972.42718596479
872.4173199999999,56125.52867552271
873.9718536,49276.025414478776
875.5304886,43293.759152407234
877.0932193,38158.80559640124
878.6600399,33686.803771548395
880.2309443,29739.35129457298
881.8059264000001,26120.05528725268
883.3849798,22804.046260033087
884.9680981,19749.757825731333
886.5552747000002,16862.142316048292
888.1465029,14146.787363960331
889.7417757000001,11569.155556185571
891.3410862,9090.57184702946
892.9444273,6825.763449366958
894.5517916000001,4938.185893382236
896.1631719000001,3421.853088742012
897.7785605,2209.524925941165
899.3979498,1303.306992236457
901.0213321,660.9184241964713
902.6486995,256.61736409407644
904.280044,73.1600683633893
905.9153575,34.8168960149347
907.5546319,13.697765457150387
909.1978586,4.806466342541204
910.8450295,-3.375389010866936
912.4961358,-1.945838213316483
914.1511691,2.143651113792037
915.8101205,-5.588724546315235
917.4729813,-0.0847166052511163
919.1397426,-3.16334733574574
920.8103953,0.4415389257802514
922.4849303,4.762325317972104
924.1633386,0.3367390488550703
925.8456109,-2.954393976771409
927.5317378,1.1213101835771502
929.22171,-1.1784167152442042
930.9155179,-0.1959820145603092
932.6131521,2.623685655736
934.3146028,3.508808964553748
936.0198606,-1.4092467872262948
937.7289155,3.357051064217856
939.4417579,-0.1433549982058296
941.1583779,3.4924909085186995
942.8787656,1.7552833197681612
944.6029109,1.0438529115219704
946.3308041,1.61116527028671
948.0624349,-1.6406580822307812
949.7977933,0.0303627546615611
951.5368692,1.0054468414848572
953.2796523,2.8825024563870287
955.0261327,2.038386217692225
956.7762999,-0.9961022088620024
958.5301437,0.3059147389799099
960.2876539,-0.9832630871108788
962.0488201,-2.0465408019560334
963.813632,-3.145091001415989
965.5820793,-1.6500203217407448
967.3541517,-3.931627784697047
969.1298386,2.105018682888055
970.9091298,1.7033514814049606
972.6920149,-2.722886210281976
974.4784835,-0.4818640940231268
976.2685251,-0.3512474515183997
978.0621293,-4.374340339645181
979.8592859,-0.1795326001418748
981.6599843,1.1326973448076738
983.4642142,-1.3699780389486216
985.2719651,1.4194941617328218
987.0832269,-2.0340671427426784
988.897989,0.5951808195257647
990.7162412,0.8251880571268331
992.5379731,0.5697323218961414
994.3631745,-0.1305353913543167
996.191835,-2.5234487474089846
998.0239445,-1.4046168974828863
999.8594926,-1.721517714247634
1001.698469,0.1940873766338494
1003.540864,-2.4828015120146354
1005.386668,-0.2560380296789093
1007.235869,-1.0135027700346122
1009.088458,-1.3882057339090028
1010.944426,-1.4595044843212577
1012.803762,2.695458672122457
1014.666456,-1.7623914860927488
1016.532498,3.563393467847685
1018.401878,0.1326549887647255
1020.274588,2.036567084308109
1022.150616,-4.73185969603898
1024.029953,-1.7019446622146523
1025.912591,-1.3569396311604591
1027.798518,-1.7565954216705633
1029.687726,-0.98573078831702
1031.580205,0.4841937252135517
1033.475945,0.8186167813122637
1035.3749380000002,2.5893260434548018
1037.277175,1.538102537464364
