wave,flux
306.2504509,539.3446527222088
306.5604242,757.4260036196985
306.871524,999.3608549548068
307.18375710000004,1262.8589081129653
307.4971302,1549.1077747223171
307.8116501,1860.54217463696
308.1273236,1970.869253722988
308.4441577,2089.039044093176
308.7621594,2214.0962132008217
309.0813356,2337.683129447292
309.4016935,2461.7526762211232
309.7232403,2588.9776289448564
310.04598300000004,2727.046678702701
310.369929,2850.490962183631
310.6950856,2972.4924644407797
311.0214601,3098.5542275298226
311.34906010000003,3219.046996090781
311.6778931,3331.551375407163
312.0079665,3451.5713194692985
312.33928810000003,3564.107980955181
312.6718655,3688.234232812312
313.00570639999995,3815.113974578149
313.3408189,3945.4734482672575
313.6772106,4087.236502608601
314.0148896,4241.19976586
314.3538639,4422.406067500314
314.6941415,4612.548882545746
315.0357308,4816.660651262279
315.37863980000003,5033.471316538343
315.7228769,5276.119006277352
316.0684504,5537.080464348096
316.4153688,5815.06736452241
316.76364069999994,6114.562108609014
317.1132746,6430.704775212079
317.4642791,6758.612848109831
317.8166631,7109.477863714841
318.1704352,7489.330502624785
318.5256045,7876.23414043621
318.8821799,8281.42132224517
319.2401704,8684.550181963365
319.5995851,9102.086231257868
319.96043330000003,9513.2102893105
320.3227243,9918.742145818596
320.6864673,10326.41202017532
321.0516719,10718.339902467204
321.4183476,11103.424647571152
321.786504,11494.025178590327
322.1561508,11848.56091533712
322.5272977,12210.026517134194
322.8999548,12566.577268684285
323.2741319,12914.844832928464
323.649839,13260.886587930489
324.0270864,13614.00312641568
324.40588419999995,13972.135631532185
324.7862428,14343.73957589189
325.16817260000005,14792.57052863751
325.5516841,15241.84161047514
325.9367879,15781.832535002924
326.32349480000005,16385.095509995765
326.7118154,17097.802552266992
327.1017607,17890.349661263666
327.4933418,18827.626569175274
327.88656960000003,19884.383221528456
328.2814555,21122.482550431487
328.6780106,22611.903184829112
329.0762465,24396.316158721744
329.47617460000004,26581.913215264525
329.8778065,29288.127027501112
330.281154,32778.761777471795
330.6862289,37223.33693252674
331.0930432,42966.60353118367
331.5016088,50342.029986515554
331.911938,59641.61596788013
332.32404310000004,71236.80133952749
332.7379364,85403.99018154046
333.1536305,102192.29939747904
333.571138,121641.99535249248
333.9904716,143471.85918906805
334.4116443,167239.28795573043
334.834669,192282.87589032747
335.2595588,217573.1887836168
335.686327,242066.3391262725
336.114987,264797.8002689678
336.5455522,284629.74626416864
336.9780363,300575.9177151341
337.41245310000005,312104.0534385629
337.8488164,318773.806190393
338.28714019999995,320606.4558360704
338.7274388,318084.8322544046
339.1697264,311873.25175822194
339.6140175,302856.81992110604
340.06032660000005,292372.4846436797
340.5086685,281431.0595292227
340.959058,271283.51582221326
341.4115102,262937.65995216963
341.8660403,257169.25220952847
342.32266339999995,254400.0338630501
342.7813952,254872.85339883328
343.24225110000003,258575.87432391592
343.70524710000007,264896.9900863864
344.17039889999995,273476.7804700026
344.6377228,283611.46647076646
345.1072349,294474.3823963767
345.5789517,305302.6305855986
346.0528897,315554.5294190493
346.5290657,324591.8675861955
347.0074967,332095.5800204869
347.48819960000003,337879.09328319033
347.9711917,341795.5600421028
348.45649060000005,344115.84513500327
348.9441137,345127.4655410588
349.434079,345168.2286536114
349.9264043,344763.78160545323
350.4211078,344400.4018030393
350.9182079,344490.78017347417
351.4177232,345424.5671698893
351.9196722,347442.72614660393
352.42407410000004,350761.2852858566
352.9309478,355396.15175669343
353.4403127,361164.0519224811
353.95218839999995,367927.0645055649
354.4665945,375399.2648383592
354.983551,383129.3510564497
355.503078,390992.5124175474
356.025196,398504.3706674058
356.5499253,405689.706851493
357.077287,412381.82320091984
357.6073018,418598.6084786175
358.1399912,424327.05638758175
358.6753765,429878.3441187861
359.2134795,435419.5180085623
359.754322,441044.0798712085
360.2979263,447087.2194947089
360.8443147,453531.0901604165
361.3935098,460508.8422554608
361.9455346,468027.6166311282
362.5004122,475936.9406133551
363.058166,484368.5323353959
363.61881960000005,493241.4579593958
364.1823969,502588.99081233
364.7489221,512349.91555002966
365.3184196,522605.79489191226
365.8909141,533233.9764048267
366.4664305,544535.5045429415
367.0449943,556110.7555354938
367.6266307,568185.8675366688
368.2113658,580264.9352874323
368.7992255,592306.76709685
369.3902363,603803.4803684572
369.9844249,614531.7446920228
370.5818182,623837.5212680385
371.1824436,631382.9580605528
371.7863286000001,636771.6516101635
372.3935012,639621.612707543
373.0039896,639744.9295734819
373.6178223,637156.0055118224
374.2350283,631944.4281401082
374.8556368,624424.4242724584
375.4796772,615157.04766426
376.1071796,604719.1518682479
376.7381741,593947.3128671253
377.3726913,583504.1988129334
378.0107622,574345.0232892553
378.652418,566958.2169041621
379.2976904,562070.4715276917
379.9466115,560039.7975609149
380.5992136,561081.8373449225
381.2555296,565411.9291582003
381.9155926,572642.6257176657
382.5794362,582932.4663607961
383.2470943,595809.4778057098
383.9186014,611127.6138801365
384.5939922,628573.1121463357
385.2733019,648014.7922925976
385.9565661,669517.6879528556
386.6438209,692981.8282540275
387.3351027,718573.4534889674
388.0304484,746568.6035523034
388.7298955,777184.6347613495
389.4334817,810235.8636005162
390.1412452,845741.5171660676
390.853225,883587.2769989072
391.56946,923262.3410444184
392.2899901,963568.900664157
393.0148555,1004002.6785519077
393.7440968,1043163.8043384064
394.4777551,1080042.7783928984
395.2158722,1113971.9129580532
395.9584903,1144156.152927638
396.7056521,1170265.131211392
397.457401,1192520.2996771631
398.2137806,1211840.7315400902
398.9748353,1229432.2005236065
399.7406101,1246820.932384461
400.5111505,1265929.200913855
401.2865024,1288293.42249471
402.0667126,1316325.4246925537
402.8518283,1351312.6030220476
403.6418973,1394121.7317127748
404.436968,1445145.9155686416
405.2370896,1503923.392305464
406.0423117,1569425.9352339937
406.8526847,1639799.6066462526
407.66825960000006,1712739.2120287728
408.4890879,1785545.3964865338
409.3152221,1855594.681776396
410.1467152,1919978.347877692
410.9836208,1976944.2848011
411.8259934,2025183.6002938668
412.673888,2064103.49817474
413.5273605,2094360.0729441463
414.38646760000006,2116978.1911224457
415.2512664,2134050.448827345
416.1218152,2147666.8732702467
416.9981727,2159867.791291737
417.8803987,2172642.4042327376
418.7685535,2187528.5964441323
419.6626985,2205227.9153755507
420.5628957,2225865.780909472
421.4692081,2249241.468523588
422.3816994,2275003.446394183
423.3004343,2302853.8950650967
424.2254783,2332444.9088894324
425.1568978,2364403.8560587238
426.0947602,2399810.722435717
427.0391337,2440457.8776209704
427.9900874,2489288.8779766853
428.9476917,2548160.1209395784
429.9120175,2618680.952682127
430.8831369,2703195.8154120976
431.8611232,2801513.860049729
432.8460504,2913344.53960171
433.8379937,3036476.830548572
434.8370293,3167337.5574960317
435.8432345,3302986.920521336
436.8566878,3439158.120868175
437.8774686,3572278.9751987294
438.9056575,3698742.8049036376
439.9413364,3817538.536111029
440.9845882,3927469.6666569617
442.035497,4030072.092767588
443.0941482,4127549.884334568
444.1606283,4222478.136042024
445.23502520000005,4318206.661917144
446.317428,4418558.7942545405
447.407927,4526318.296953323
448.5066141,4642448.508712431
449.6135822,4768319.407123073
450.7289258,4902501.2572054
451.85274060000006,5044431.0844332725
452.9851239,5188115.871927658
454.1261744,5330060.667238061
455.2759921,5465836.1527656885
456.4346788,5590698.665709783
457.6023374,5702507.494118278
458.7790727,5797796.803376783
459.9649909,5875228.145329788
461.1601998,5934014.272262086
462.364809,5976023.501091615
463.5789295,6005548.953877575
464.8026741000001,6024901.10055363
466.0361575,6035196.610687343
467.2794956999999,6039672.526413267
468.5328070000001,6041218.102871643
469.7962111000001,6041677.867715983
471.0698299,6040741.186153756
472.3537868,6040937.236190695
473.6482074,6041718.644556278
474.9532192,6041656.237365124
476.2689517,6041390.69379024
477.5955362,6041228.719091417
478.93310639999993,6041560.648579561
480.2817979,6041243.239489139
481.6417484,6041043.845293903
483.01309800000007,6041661.32482464
484.3959889,6041216.753167605
485.7905654,6041393.148981776
487.1969743,6041250.59201677
488.6153648,6041460.115859577
490.0458884,6041177.899765895
491.488699,6041270.2665724335
492.943953,6041405.265011575
494.4118094,6041337.237472348
495.8924299,6041280.913571168
497.3859785,6041708.016637753
498.8926222,6041478.398444708
500.4125306,6041334.494347923
501.9458762,6041510.741008395
503.4928341,6041090.916498387
505.0535827,6041373.020595336
506.628303,6041690.243449288
508.2171791999999,6041084.928855523
509.8203986,6040978.846238766
511.4381515,6041514.215315418
513.0706316000001,6040770.536721557
514.7180356,6041342.650236701
516.3805639,6041378.827967413
518.0584200000001,6040962.00163691
519.7518110000001,6040995.571977948
521.4609475999999,6041139.06789326
523.186044,6041394.616316398
524.927318,6041725.920559276
526.6849915,6041430.894259249
528.45929,6042005.78116082
530.2504428000001,6041885.386124529
532.0586836,6041316.437506779
533.8842498,6041364.860180588
535.7273833,6041482.138675365
537.5883299,6041131.685441793
539.46734,6041099.016981508
541.3646685,6041402.731231509
543.2805745000001,6041330.745024392
545.2153222000001,6041137.499253128
547.1691801,6041073.270071751
549.1424218999999,6041461.080297149
551.1353259,6041381.853233104
553.1481756000001,6041573.1839287225
555.1812597,6041354.627582832
557.2348721,6041289.327931913
559.3093121,6041165.661700212
561.4048845,6041351.264954598
563.5218996,6041343.0188855175
565.6606737000001,6041686.189126361
567.8215287,6041458.870531454
570.0047927,6041406.487924954
572.2107997,6041403.4732002085
574.4398902,6041146.470697619
576.692411,6041277.91177809
578.9687155,6041688.708516168
581.2691637,6041235.246252762
583.5941226,6041263.822075055
585.943966,6041606.519314575
588.3190752,6041562.477338654
590.7198384999999,6041552.829953313
593.1466518,6040976.11812159
595.5999188999999,6041875.466442582
598.0800512,6041519.182340995
600.5874682,6041482.805186497
603.1225977000001,6041215.467926062
605.6858758999999,6041917.1043382175
608.2777476,6041313.348451857
610.8986664,6041145.217051428
613.549095,6041215.312499492
616.2295054,6041506.888006412
618.940379,6041556.291725302
621.6822068,6042467.131802226
624.4554901,6042298.263657087
627.2607402000001,6040223.023326637
630.0984786,6041666.096149455
632.9692378999999,6041357.355242392
635.8735614,6041014.427959711
638.8120038,6041056.596965836
641.7851312999999,6040499.567738337
644.7935217999999,6042767.141868684
647.8377654,6040354.959188185
650.9184646000001,6040332.453721845
654.0362346,6041572.118426908
662.8338137000001,6041566.783747729
663.7323607999999,6041506.331844827
664.6337553,6041395.154352518
665.5380107000001,6041174.928814688
666.4451407,6041789.567108886
667.355159,6041768.990847449
668.2680793,6041025.600701578
669.1839152000001,6041878.621230503
670.1026805,6041536.203329182
671.0243889,6041817.049782247
671.949054,6041288.980459927
672.8766895,6041271.116313018
673.8073092,6041228.570076198
674.7409267,6041021.87285016
675.6775557999999,6041509.762488304
676.6172101,6041406.773123708
677.5599033,6041372.668337625
678.5056492000001,6041317.116322317
679.4544612999999,6041289.512202607
680.4063535,6041134.786884902
681.3613392999999,6041533.216924714
682.3194324,6041266.774412323
683.2806465,6041136.6792547135
684.2449952000001,6041656.735559247
685.2124921,6041453.935218197
686.1831509,6041477.807051958
687.1569850999999,6041447.407197123
688.1340083,6040951.0301357685
689.1142341,6041551.977994118
690.097676,6041295.175980351
691.0843474999999,6041496.867909148
692.0742622,6041330.458684293
693.0674334,6041360.913656178
694.0638748,6041843.168072684
695.0635996,6041188.541090461
696.0666212,6041507.856637272
697.0729531000001,6041130.160638803
698.0826086,6041226.637563645
699.0956008999999,6041517.02129734
700.1119432999999,6041433.962947777
701.1316491,6041447.719601933
702.1547314,6041815.003225118
703.1812034,6040981.717873668
704.2110782000001,6040967.6351438975
705.2443688999999,6041738.733177078
706.2810885,6041548.596795866
707.3212499,6041271.804002987
708.3648661000001,6041728.899340636
709.41195,6041584.068917628
710.4625143999999,6041240.915375478
711.5165721,6041437.214353087
712.5741357,6041658.888258887
713.6352181,6041853.817453749
714.6998317000001,6041671.885354993
715.7679891,6041130.504671548
716.8397027999999,6041436.080231153
717.9149852,6041318.773342314
718.9938487000001,6041110.558645267
720.0763055,6041722.756696959
721.162368,6041509.564044408
722.2520481,6041873.071762422
723.3453581,6041526.665576748
724.4423098,6041324.880358534
725.5429153,6041484.095598589
726.6471863,6041026.719533288
727.7551346,6041408.608434394
728.866772,6041784.03417271
729.9821099,6041725.843732835
731.1011599,6041513.788835146
732.2239335,6041210.168393136
733.3504419,6041645.331585477
734.4806963999999,6040885.036336835
735.6147081,6041689.546074187
736.7524882,6041305.1218696935
737.8940474,6041200.265325408
739.0393967,6041800.426085106
740.1885467999999,6041282.587589228
741.3415084,6041523.938211418
742.498292,6041349.3987891525
743.658908,6041682.543470183
744.8233667999999,6041026.177558086
745.9916785,6041609.620689474
747.1638532000001,6041236.894622227
748.3399009,6041267.287163357
749.5198315,6040997.277771267
750.7036546,6041894.717999257
751.89138,6041019.960727064
753.0830171,6041294.731642417
754.2785752999999,6041196.609560045
755.4780638,6040896.320479778
756.6814917,6041697.931365322
757.8888678999999,6041314.892698192
759.1002014999999,6041291.76002809
760.3155009,6041289.917748722
761.5347749,6036780.657062923
762.7580318,6023964.05980649
763.98528,5997712.657800937
765.2165276000001,5955951.308974412
766.4517825,5895347.040713949
767.6910527000001,5813382.031961722
768.9343458999999,5705559.672415217
770.1816697,5569875.59638177
771.4330313999999,5410181.127787641
772.6884382999999,5231843.763107789
773.9478975,5039085.463048446
775.211416,4832980.524139859
776.4790005,4616379.994471286
777.7506578,4391418.445752092
779.0263942,4162201.13336868
780.3062162,3932472.826492075
781.5901297,3704004.682353642
782.8781409,3478031.841765556
784.1702554999999,3257889.636634962
785.4664793,3047456.7490209923
786.7668176,2849790.805837604
788.0712758,2667880.449633716
789.3798591,2503522.8423466543
790.6925722999999,2356380.8811159288
792.0094204,2226130.71682236
793.3304079,2110622.710441304
794.6555392000001,2007214.1856742024
795.9848187000001,1913150.76315576
797.3182504,1825846.586434492
798.6558382999999,1742977.564362195
799.9975861,1663641.2775876955
801.3434973,1585741.904297726
802.6935752999999,1510419.1496726065
804.0478232999999,1437564.072187647
805.4062443,1367628.7720231244
806.7688411,1301695.3845820487
808.1356164,1240120.060906805
809.5065726,1183657.899297768
810.881712,1132334.1536698125
812.2610367000001,1085876.9113334347
813.6445485,1043587.3167137622
815.0322493,1004697.6743276272
816.4241404,968409.006576656
817.8202233,933318.2401410504
819.2204991,899116.5702209264
820.6249687999999,864897.1098753907
822.0336331,830232.955694159
823.4464925999999,794968.3611602952
824.8635477000001,759564.773113662
826.2847987,724118.5188902372
827.7102456,689123.515936417
829.1398882,655092.694732433
830.5737261,622111.7128145909
832.0117589,590517.13129382
833.4539857000001,560695.1867076791
834.9004057999999,532372.5912337779
836.3510179,505560.8878744025
837.8058209,479851.1261874744
839.2648132999999,455164.5877465536
840.7279934000001,431060.8606945975
842.1953594,407389.4142823333
843.6669092,384107.6578465593
845.1426408,361062.00322486064
846.6225517000001,338163.1508206549
848.1066392999999,315524.3289994862
849.5949009999999,293031.8247583148
851.0873337999999,271018.12152723875
852.5839347000001,249467.1316309073
854.0847002999999,228473.33789758905
855.5896273,208273.924826504
857.0987119999999,188741.7572744613
858.6119507000001,170146.76381401625
860.1293393999999,152510.40892807208
861.650874,136164.089540954
863.1765502000001,120960.25721488072
864.7063635,107014.17990464352
866.2403094,94338.80468785512
867.778383,82941.22315808732
869.3205793999999,72875.05904464095
870.8668935000001,63972.42718596479
872.4173199999999,56125.52867552271
873.9718536,49276.025414478776
875.5304886,43293.759152407234
877.0932193,38158.80559640124
878.6600399,33686.803771548395
880.2309443,29739.35129457298
881.8059264000001,26120.05528725268
883.3849798,22804.046260033087
884.9680981,19749.757825731333
886.5552747000002,16862.142316048292
888.1465029,14146.787363960331
889.7417757000001,11569.155556185571
891.3410862,9090.57184702946
892.9444273,6825.763449366958
894.5517916000001,4938.185893382236
896.1631719000001,3421.853088742012
897.7785605,2209.524925941165
899.3979498,1303.306992236457
901.0213321,660.9184241964713
902.6486995,256.61736409407644
904.280044,73.1600683633893
905.9153575,34.8168960149347
907.5546319,13.697765457150387
909.1978586,4.806466342541204
910.8450295,-3.375389010866936
912.4961358,-1.945838213316483
914.1511691,2.143651113792037
915.8101205,-5.588724546315235
917.4729813,-0.0847166052511163
919.1397426,-3.16334733574574
920.8103953,0.4415389257802514
922.4849303,4.762325317972104
924.1633386,0.3367390488550703
925.8456109,-2.954393976771409
927.5317378,1.1213101835771502
929.22171,-1.1784167152442042
930.9155179,-0.1959820145603092
932.6131521,2.623685655736
934.3146028,3.508808964553748
936.0198606,-1.4092467872262948
937.7289155,3.357051064217856
939.4417579,-0.1433549982058296
941.1583779,3.4924909085186995
942.8787656,1.7552833197681612
944.6029109,1.0438529115219704
946.3308041,1.61116527028671
948.0624349,-1.6406580822307812
949.7977933,0.0303627546615611
951.5368692,1.0054468414848572
953.2796523,2.8825024563870287
955.0261327,2.038386217692225
956.7762999,-0.9961022088620024
958.5301437,0.3059147389799099
960.2876539,-0.9832630871108788
962.0488201,-2.0465408019560334
963.813632,-3.145091001415989
965.5820793,-1.6500203217407448
967.3541517,-3.931627784697047
969.1298386,2.105018682888055
970.9091298,1.7033514814049606
972.6920149,-2.722886210281976
974.4784835,-0.4818640940231268
976.2685251,-0.3512474515183997
978.0621293,-4.374340339645181
979.8592859,-0.1795326001418748
981.6599843,1.1326973448076738
983.4642142,-1.3699780389486216
985.2719651,1.4194941617328218
987.0832269,-2.0340671427426784
988.897989,0.5951808195257647
990.7162412,0.8251880571268331
992.5379731,0.5697323218961414
994.3631745,-0.1305353913543167
996.191835,-2.5234487474089846
998.0239445,-1.4046168974828863
999.8594926,-1.721517714247634
1001.698469,0.1940873766338494
1003.540864,-2.4828015120146354
1005.386668,-0.2560380296789093
1007.235869,-1.0135027700346122
1009.088458,-1.3882057339090028
1010.944426,-1.4595044843212577
1012.803762,2.695458672122457
1014.666456,-1.7623914860927488
1016.532498,3.563393467847685
1018.401878,0.1326549887647255
1020.274588,2.036567084308109
1022.150616,-4.73185969603898
1024.029953,-1.7019446622146523
1025.912591,-1.3569396311604591
1027.798518,-1.7565954216705633
1029.687726,-0.98573078831702
1031.580205,0.4841937252135517
1033.475945,0.8186167813122637
1035.3749380000002,2.5893260434548018
1037.277175,1.538102537464364
1039.182645,-2.0127188922791954
1041.09134,2.6250894347966467
1043.003251,0.2137404881779373
1044.918368,-0.0573575810121391
1046.836683,0.7728066703273068
1048.758188,3.079024708981095
1050.682872,1.7863592040068756
1052.610728,-0.9875552316154448
1054.541747,0.8450681541709223
