wave,flux
306.2504509,1156.4851395930025
306.5604242,1640.9770852354827
306.871524,2164.4305072387024
307.18375710000004,2784.363384995432
307.4971302,3454.2327822826564
307.8116501,4197.414671739212
308.1273236,4495.345746744973
308.4441577,4820.075465216069
308.7621594,5190.877104227966
309.0813356,5589.875362412029
309.4016935,6014.601972128377
309.7232403,6449.477522669497
310.04598300000004,6882.411247940578
310.369929,7324.3350121633375
310.6950856,7753.202815772984
311.0214601,8172.14859966712
311.34906010000003,8590.566070327937
311.6778931,9010.68050078695
312.0079665,9427.121703940771
312.33928810000003,9847.238382555692
312.6718655,10273.021564410128
313.00570639999995,10708.514819381013
313.3408189,11155.684938388426
313.6772106,11630.740194513452
314.0148896,12109.476987761103
314.3538639,12601.526142417251
314.6941415,13127.65788494824
315.0357308,13689.995065196066
315.37863980000003,14274.777663975585
315.7228769,14931.53882074505
316.0684504,15621.963846297704
316.4153688,16347.759735652033
316.76364069999994,17129.913291023502
317.1132746,17964.39445147386
317.4642791,18841.951974462696
317.8166631,19754.4467324005
318.1704352,20688.41980023148
318.5256045,21633.380628241423
318.8821799,22615.450087208515
319.2401704,23610.787208495225
319.5995851,24632.84873094824
319.96043330000003,25615.30967963776
320.3227243,26599.36698411412
320.6864673,27587.481053046435
321.0516719,28584.736044579862
321.4183476,29625.606672578167
321.786504,30680.402480182613
322.1561508,31730.46872160248
322.5272977,32922.55660619573
322.8999548,34170.532506389565
323.2741319,35591.69652308696
323.649839,37179.28625951628
324.0270864,38993.546403772445
324.40588419999995,41157.98377454418
324.7862428,43668.81796860665
325.16817260000005,46759.78085943998
325.5516841,50285.88068648292
325.9367879,54448.81997205321
326.32349480000005,59443.757914475726
326.7118154,65126.768466433474
327.1017607,71721.42341934386
327.4933418,79237.82115633726
327.88656960000003,87668.59517136622
328.2814555,97029.16359174368
328.6780106,107291.3586206278
329.0762465,118614.01514725742
329.47617460000004,130960.01995855792
329.8778065,144226.44010411671
330.281154,158597.46648169833
330.6862289,173952.79658236552
331.0930432,190433.6730004529
331.5016088,207766.70008509827
331.911938,225698.23764737265
332.32404310000004,244298.50549145736
332.7379364,263166.0314939224
333.1536305,282094.2016064896
333.571138,300790.0678240339
333.9904716,319003.09769560536
334.4116443,336796.3768426141
334.834669,353929.586940254
335.2595588,370486.1337352755
335.686327,386624.3198663761
336.114987,402630.09129543096
336.5455522,418711.5196949607
336.9780363,435243.4050309213
337.41245310000005,452103.6783501094
337.8488164,469775.99341816775
338.28714019999995,488319.868864891
338.7274388,507677.86649845977
339.1697264,527923.4470554092
339.6140175,549103.0765972389
340.06032660000005,571150.0380335733
340.5086685,594315.8293767248
340.959058,618925.4763628793
341.4115102,645138.0902055952
341.8660403,673482.474538414
342.32266339999995,704825.6707486637
342.7813952,739287.1970579607
343.24225110000003,777668.7757065946
343.70524710000007,819831.9851362669
344.17039889999995,866025.9579814385
344.6377228,915518.0051509064
345.1072349,967625.6746332836
345.5789517,1020638.2736516086
346.0528897,1072955.3232368482
346.5290657,1122672.8888521302
347.0074967,1167876.5884779694
347.48819960000003,1206582.4041590963
347.9711917,1237523.4325741194
348.45649060000005,1259644.6159062586
348.9441137,1272795.4563805575
349.434079,1277039.039681332
349.9264043,1273548.5349169434
350.4211078,1263563.0498118072
350.9182079,1248959.6713936736
351.4177232,1231523.8610843162
351.9196722,1213364.2740941625
352.42407410000004,1196568.617682127
352.9309478,1182611.6012781486
353.4403127,1173502.9523165312
353.95218839999995,1170286.376906913
354.4665945,1174367.9692878674
354.983551,1186001.6902500042
355.503078,1205870.7770714206
356.025196,1233555.2637631705
356.5499253,1268646.1403692598
357.077287,1309894.751101297
357.6073018,1356182.4032682593
358.1399912,1405510.011032016
358.6753765,1455651.256674999
359.2134795,1504679.9117800477
359.754322,1550159.1209131728
360.2979263,1590086.1280074285
360.8443147,1622795.7462276327
361.3935098,1646799.445141293
361.9455346,1661711.4110381375
362.5004122,1666989.9627855315
363.058166,1663364.1022700488
363.61881960000005,1651390.3844934383
364.1823969,1632520.282774718
364.7489221,1608509.3307213334
365.3184196,1580885.5511763685
365.8909141,1552210.3615106582
366.4664305,1523784.142256481
367.0449943,1497912.5447461312
367.6266307,1475771.8704841968
368.2113658,1458545.6152213546
368.7992255,1447306.7868436947
369.3902363,1442601.5074624897
369.9844249,1443638.1711033438
370.5818182,1451599.388100626
371.1824436,1465139.4155754445
371.7863286000001,1484461.3158130678
372.3935012,1508347.610521471
373.0039896,1535704.7365041128
373.6178223,1566214.9692409118
374.2350283,1598141.7434611956
374.8556368,1630135.440257341
375.4796772,1661092.1139990238
376.1071796,1689092.9001454646
376.7381741,1713192.847776036
377.3726913,1732374.0865175722
378.0107622,1745139.681729438
378.652418,1752213.3364194552
379.2976904,1753439.4217075282
379.9466115,1749162.6704940535
380.5992136,1741592.54437766
381.2555296,1731894.6016734976
381.9155926,1722188.185161694
382.5794362,1713890.656802282
383.2470943,1709076.4229967694
383.9186014,1709543.3384950869
384.5939922,1716018.795155042
385.2733019,1729366.612260722
385.9565661,1749351.8413256388
386.6438209,1776359.420598152
387.3351027,1809523.5557868325
388.0304484,1848586.9904745088
388.7298955,1892697.5633026257
389.4334817,1940753.73801756
390.1412452,1992889.833059506
390.853225,2047741.125659085
391.56946,2105502.899047459
392.2899901,2164869.8013830963
393.0148555,2226170.42594086
393.7440968,2287610.859617875
394.4777551,2349593.468747886
395.2158722,2411383.151367104
395.9584903,2472441.462918345
396.7056521,2533384.813102345
397.457401,2594014.511924976
398.2137806,2655350.241174605
398.9748353,2718851.1122871246
399.7406101,2786110.843192557
400.5111505,2859310.3818461383
401.2865024,2938950.9628762864
402.0667126,3026639.750322293
402.8518283,3122179.4792975504
403.6418973,3225670.3062005467
404.436968,3334659.095469871
405.2370896,3448101.84370145
406.0423117,3562625.370982998
406.8526847,3675325.236685882
407.66825960000006,3784595.4037305536
408.4890879,3887998.5372003545
409.3152221,3984738.728589547
410.1467152,4074963.133388565
410.9836208,4158658.370801192
411.8259934,4240712.562521732
412.673888,4323087.3400864415
413.5273605,4411745.189588377
414.38646760000006,4511576.24910389
415.2512664,4627463.193582241
416.1218152,4759106.789275378
416.9981727,4903485.374835879
417.8803987,5059508.88319322
418.7685535,5222278.378059536
419.6626985,5385147.661413697
420.5628957,5540859.907906445
421.4692081,5679083.890513449
422.3816994,5792310.953666315
423.3004343,5881873.426274996
424.2254783,5948347.91218029
425.1568978,5994845.583230413
426.0947602,6022841.063034832
427.0391337,6037140.417631859
427.9900874,6041452.960170837
428.9476917,6041674.279272374
429.9120175,6041051.281726591
430.8831369,6040980.862452944
431.8611232,6041508.618257059
432.8460504,6041133.307073338
433.8379937,6041095.422141861
434.8370293,6041373.026205487
435.8432345,6041501.239707235
436.8566878,6041809.960088044
437.8774686,6041356.507100552
438.9056575,6041512.320641425
439.9413364,6041477.964731842
440.9845882,6041428.743313908
442.035497,6041434.959333703
443.0941482,6041716.157855722
444.1606283,6041516.445011618
445.23502520000005,6041426.729911287
446.317428,6041529.20092419
447.407927,6041644.408559366
448.5066141,6041270.772309057
449.6135822,6041312.547527338
450.7289258,6041448.281591073
451.85274060000006,6041547.994553083
452.9851239,6041693.498304659
454.1261744,6040975.375107122
455.2759921,6041128.741131445
456.4346788,6041386.81473704
457.6023374,6041521.277481686
458.7790727,6041341.32249666
459.9649909,6041768.237977558
461.1601998,6040852.165608574
462.364809,6041588.62604563
463.5789295,6041262.3261906775
464.8026741000001,6041470.3616982335
466.0361575,6041213.27173077
467.2794956999999,6041822.8359902175
468.5328070000001,6041058.880081106
469.7962111000001,6041256.4483752
471.0698299,6041470.949823787
472.3537868,6041059.108111875
473.6482074,6041497.004099401
474.9532192,6041803.559523215
476.2689517,6041555.317007015
477.5955362,6041736.810777216
478.93310639999993,6041620.1129010925
480.2817979,6041412.181913902
481.6417484,6041250.231742294
483.01309800000007,6041171.029873885
484.3959889,6041133.495376953
485.7905654,6041120.236999951
487.1969743,6041443.365798472
488.6153648,6041589.041670567
490.0458884,6041345.31121973
491.488699,6041390.329371653
492.943953,6041236.711115058
494.4118094,6041861.716783092
495.8924299,6041321.746509733
497.3859785,6041696.164223842
498.8926222,6041843.578472908
500.4125306,6041336.875052583
501.9458762,6041426.029325088
503.4928341,6041711.077638945
505.0535827,6041661.0581326615
506.628303,6041192.220956167
508.2171791999999,6041601.822967254
509.8203986,6041186.917423648
511.4381515,6041257.333331453
513.0706316000001,6041800.306945574
514.7180356,6041227.5045347465
516.3805639,6041140.047079108
518.0584200000001,6041248.800788024
519.7518110000001,6041763.013514351
521.4609475999999,6041595.935679321
523.186044,6041367.080959653
524.927318,6041378.766026141
526.6849915,6041314.669365704
528.45929,6041285.591333285
530.2504428000001,6041351.084920943
532.0586836,6041276.954825678
533.8842498,6041580.364600836
535.7273833,6041602.154162674
537.5883299,6041549.29590918
539.46734,6041439.963975478
541.3646685,6041481.273276061
543.2805745000001,6041069.952817724
545.2153222000001,6040918.914816137
547.1691801,6041254.1216822965
549.1424218999999,6041166.409182632
551.1353259,6041369.239029948
553.1481756000001,6041396.954075903
555.1812597,6040911.147524371
557.2348721,6041437.955919842
559.3093121,6041186.102273556
561.4048845,6041170.410082487
563.5218996,6041740.9919872
565.6606737000001,6041782.519893486
567.8215287,6041279.148410424
570.0047927,6041348.669545042
572.2107997,6041244.3087693285
574.4398902,6041732.199996186
576.692411,6041430.735931125
578.9687155,6041437.184183547
581.2691637,6041201.644682663
583.5941226,6041427.023447956
585.943966,6041297.154974473
588.3190752,6040992.546160019
590.7198384999999,6041821.435127487
593.1466518,6041471.031164957
595.5999188999999,6041523.260316812
598.0800512,6041668.32214282
600.5874682,6041387.618333452
603.1225977000001,6041752.008037768
605.6858758999999,6041554.130975182
608.2777476,6041520.583377223
610.8986664,6041806.210505217
613.549095,6041379.604085717
616.2295054,6041311.1722277
618.940379,6041538.269815486
621.6822068,6040047.121992492
624.4554901,6042645.689008362
627.2607402000001,6040627.497768562
630.0984786,6040911.153792623
632.9692378999999,6041961.0704324925
635.8735614,6042340.565489554
638.8120038,6041422.771267011
641.7851312999999,6041264.111817403
644.7935217999999,6042996.805900808
647.8377654,6042518.986695741
650.9184646000001,6043517.409316034
654.0362346,6044053.775725244
657.1917038,6043673.688195135
660.3855139,6040427.99522711
663.6183202999999,6041405.7490177965
666.8907926,6039559.568253139
670.2036149,6042632.907462877
673.557486,6039048.580663081
676.9531202000001,6041325.435490935
680.3912472999999,6041141.314959468
680.4063535,6041134.786884902
681.3613392999999,6041533.216924714
682.3194324,6041266.774412323
683.2806465,6041136.6792547135
684.2449952000001,6041656.735559247
685.2124921,6041453.935218197
686.1831509,6041477.807051958
687.1569850999999,6041447.407197123
688.1340083,6040951.0301357685
689.1142341,6041551.977994118
690.097676,6041295.175980351
691.0843474999999,6041496.867909148
692.0742622,6041330.458684293
693.0674334,6041360.913656178
694.0638748,6041843.168072684
695.0635996,6041188.541090461
696.0666212,6041507.856637272
697.0729531000001,6041130.160638803
698.0826086,6041226.637563645
699.0956008999999,6041517.02129734
700.1119432999999,6041433.962947777
701.1316491,6041447.719601933
702.1547314,6041815.003225118
703.1812034,6040981.717873668
704.2110782000001,6040967.6351438975
705.2443688999999,6041738.733177078
706.2810885,6041548.596795866
707.3212499,6041271.804002987
708.3648661000001,6041728.899340636
709.41195,6041584.068917628
710.4625143999999,6041240.915375478
711.5165721,6041437.214353087
712.5741357,6041658.888258887
713.6352181,6041853.817453749
714.6998317000001,6041671.885354993
715.7679891,6041130.504671548
716.8397027999999,6041436.080231153
717.9149852,6041318.773342314
718.9938487000001,6041110.558645267
720.0763055,6041722.756696959
721.162368,6041509.564044408
722.2520481,6041873.071762422
723.3453581,6041526.665576748
724.4423098,6041324.880358534
725.5429153,6041484.095598589
726.6471863,6041026.719533288
727.7551346,6041408.608434394
728.866772,6041784.03417271
729.9821099,6041725.843732835
731.1011599,6041513.788835146
732.2239335,6041210.168393136
733.3504419,6041645.331585477
734.4806963999999,6040885.036336835
735.6147081,6041689.546074187
736.7524882,6041305.1218696935
737.8940474,6041200.265325408
739.0393967,6041800.426085106
740.1885467999999,6041282.587589228
741.3415084,6041523.938211418
742.498292,6041349.3987891525
743.658908,6041682.543470183
744.8233667999999,6041026.177558086
745.9916785,6041609.620689474
747.1638532000001,6041236.894622227
748.3399009,6041267.287163357
749.5198315,6040997.277771267
750.7036546,6041894.717999257
751.89138,6041019.960727064
753.0830171,6041294.731642417
754.2785752999999,6041196.609560045
755.4780638,6040896.320479778
756.6814917,6041697.931365322
757.8888678999999,6041314.892698192
759.1002014999999,6041291.76002809
760.3155009,6041289.917748722
761.5347749,6036780.657062923
762.7580318,6023964.05980649
763.98528,5997712.657800937
765.2165276000001,5955951.308974412
766.4517825,5895347.040713949
767.6910527000001,5813382.031961722
768.9343458999999,5705559.672415217
770.1816697,5569875.59638177
771.4330313999999,5410181.127787641
772.6884382999999,5231843.763107789
773.9478975,5039085.463048446
775.211416,4832980.524139859
776.4790005,4616379.994471286
777.7506578,4391418.445752092
779.0263942,4162201.13336868
780.3062162,3932472.826492075
781.5901297,3704004.682353642
782.8781409,3478031.841765556
784.1702554999999,3257889.636634962
785.4664793,3047456.7490209923
786.7668176,2849790.805837604
788.0712758,2667880.449633716
789.3798591,2503522.8423466543
790.6925722999999,2356380.8811159288
792.0094204,2226130.71682236
793.3304079,2110622.710441304
794.6555392000001,2007214.1856742024
795.9848187000001,1913150.76315576
797.3182504,1825846.586434492
798.6558382999999,1742977.564362195
799.9975861,1663641.2775876955
801.3434973,1585741.904297726
802.6935752999999,1510419.1496726065
804.0478232999999,1437564.072187647
805.4062443,1367628.7720231244
806.7688411,1301695.3845820487
808.1356164,1240120.060906805
809.5065726,1183657.899297768
810.881712,1132334.1536698125
812.2610367000001,1085876.9113334347
813.6445485,1043587.3167137622
815.0322493,1004697.6743276272
816.4241404,968409.006576656
817.8202233,933318.2401410504
819.2204991,899116.5702209264
820.6249687999999,864897.1098753907
822.0336331,830232.955694159
823.4464925999999,794968.3611602952
824.8635477000001,759564.773113662
826.2847987,724118.5188902372
827.7102456,689123.515936417
829.1398882,655092.694732433
830.5737261,622111.7128145909
832.0117589,590517.13129382
833.4539857000001,560695.1867076791
834.9004057999999,532372.5912337779
836.3510179,505560.8878744025
837.8058209,479851.1261874744
839.2648132999999,455164.5877465536
840.7279934000001,431060.8606945975
842.1953594,407389.4142823333
843.6669092,384107.6578465593
845.1426408,361062.00322486064
846.6225517000001,338163.1508206549
848.1066392999999,315524.3289994862
849.5949009999999,293031.8247583148
851.0873337999999,271018.12152723875
852.5839347000001,249467.1316309073
854.0847002999999,228473.33789758905
855.5896273,208273.924826504
857.0987119999999,188741.7572744613
858.6119507000001,170146.76381401625
860.1293393999999,152510.40892807208
861.650874,136164.089540954
863.1765502000001,120960.25721488072
864.7063635,107014.17990464352
866.2403094,94338.80468785512
867.778383,82941.22315808732
869.3205793999999,72875.05904464095
870.8668935000001,63972.42718596479
872.4173199999999,56125.52867552271
873.9718536,49276.025414478776
875.5304886,43293.759152407234
877.0932193,38158.80559640124
878.6600399,33686.803771548395
880.2309443,29739.35129457298
881.8059264000001,26120.05528725268
883.3849798,22804.046260033087
884.9680981,19749.757825731333
886.5552747000002,16862.142316048292
888.1465029,14146.787363960331
889.7417757000001,11569.155556185571
891.3410862,9090.57184702946
892.9444273,6825.763449366958
894.5517916000001,4938.185893382236
896.1631719000001,3421.853088742012
897.7785605,2209.524925941165
899.3979498,1303.306992236457
901.0213321,660.9184241964713
902.6486995,256.61736409407644
904.280044,73.1600683633893
905.9153575,34.8168960149347
907.5546319,13.697765457150387
909.1978586,4.806466342541204
910.8450295,-3.375389010866936
912.4961358,-1.945838213316483
914.1511691,2.143651113792037
915.8101205,-5.588724546315235
917.4729813,-0.0847166052511163
919.1397426,-3.16334733574574
920.8103953,0.4415389257802514
922.4849303,4.762325317972104
924.1633386,0.3367390488550703
925.8456109,-2.954393976771409
927.5317378,1.1213101835771502
929.22171,-1.1784167152442042
930.9155179,-0.1959820145603092
932.6131521,2.623685655736
934.3146028,3.508808964553748
936.0198606,-1.4092467872262948
937.7289155,3.357051064217856
939.4417579,-0.1433549982058296
941.1583779,3.4924909085186995
942.8787656,1.7552833197681612
944.6029109,1.0438529115219704
946.3308041,1.61116527028671
948.0624349,-1.6406580822307812
949.7977933,0.0303627546615611
951.5368692,1.0054468414848572
953.2796523,2.8825024563870287
955.0261327,2.038386217692225
956.7762999,-0.9961022088620024
958.5301437,0.3059147389799099
960.2876539,-0.9832630871108788
962.0488201,-2.0465408019560334
963.813632,-3.145091001415989
965.5820793,-1.6500203217407448
967.3541517,-3.931627784697047
969.1298386,2.105018682888055
970.9091298,1.7033514814049606
972.6920149,-2.722886210281976
974.4784835,-0.4818640940231268
976.2685251,-0.3512474515183997
978.0621293,-4.374340339645181
979.8592859,-0.1795326001418748
981.6599843,1.1326973448076738
983.4642142,-1.3699780389486216
985.2719651,1.4194941617328218
987.0832269,-2.0340671427426784
988.897989,0.5951808195257647
990.7162412,0.8251880571268331
992.5379731,0.5697323218961414
994.3631745,-0.1305353913543167
996.191835,-2.5234487474089846
998.0239445,-1.4046168974828863
999.8594926,-1.721517714247634
1001.698469,0.1940873766338494
1003.540864,-2.4828015120146354
1005.386668,-0.2560380296789093
1007.235869,-1.0135027700346122
1009.088458,-1.3882057339090028
1010.944426,-1.4595044843212577
1012.803762,2.695458672122457
1014.666456,-1.7623914860927488
1016.532498,3.563393467847685
1018.401878,0.1326549887647255
1020.274588,2.036567084308109
1022.150616,-4.73185969603898
1024.029953,-1.7019446622146523
1025.912591,-1.3569396311604591
1027.798518,-1.7565954216705633
1029.687726,-0.98573078831702
1031.580205,0.4841937252135517
1033.475945,0.8186167813122637
1035.3749380000002,2.5893260434548018
1037.277175,1.538102537464364
1039.182645,-2.0127188922791954
1041.09134,2.6250894347966467
1043.003251,0.2137404881779373
1044.918368,-0.0573575810121391
1046.836683,0.7728066703273068
1048.758188,3.079024708981095
1050.682872,1.7863592040068756
1052.610728,-0.9875552316154448
1054.541747,0.8450681541709223
1056.4759210000002,0.5606905164531844
1058.41324,2.214747155831732
1060.353697,-0.1533507103623259
1062.297282,-3.1936625878301363
1064.243989,-6.004355355014276
1066.193809,1.6975392031795646
1068.146734,-1.8391697537208151
1070.102755,-1.0996296138543131
1072.061865,0.8926713113443641
1074.024056,2.2107648134886464
1075.989321,-2.4650492132498067
