wave,flux
306.2504509,77.93147416339067
306.5604242,115.48050818186752
306.871524,160.31345771224645
307.18375710000004,198.57401636849232
307.4971302,245.9721375578833
307.8116501,305.3373469472344
308.1273236,327.43717684626
308.4441577,343.8092755105473
308.7621594,358.9351442959224
309.0813356,378.6516530412909
309.4016935,412.1988825145722
309.7232403,433.0985490349784
310.04598300000004,465.1102386755337
310.369929,491.3586034083093
310.6950856,518.5407722721202
311.0214601,549.1852975685397
311.34906010000003,577.517804358143
311.6778931,604.3443697469743
312.0079665,638.6908415275536
312.33928810000003,669.4242311594895
312.6718655,699.6548589525959
313.00570639999995,725.0531281602725
313.3408189,757.1057583803172
313.6772106,786.383224035533
314.0148896,821.4478027527573
314.3538639,854.2260992448922
314.6941415,888.718487660893
315.0357308,922.634428205322
315.37863980000003,967.6403837379364
315.7228769,1000.5674328648226
316.0684504,1044.7134158500398
316.4153688,1095.4870801587342
316.76364069999994,1140.3768946936138
317.1132746,1203.0332037918238
317.4642791,1260.1259026863104
317.8166631,1319.6619963292474
318.1704352,1391.4000422069412
318.5256045,1455.8383509107346
318.8821799,1532.5151301076326
319.2401704,1601.8209386110325
319.5995851,1678.3555898566572
319.96043330000003,1752.6286198973785
320.3227243,1832.685644736306
320.6864673,1909.258671746484
321.0516719,1986.4682875491103
321.4183476,2075.939430063485
321.786504,2153.108266360678
322.1561508,2248.5269009467715
322.5272977,2344.588692812656
322.8999548,2443.854958695801
323.2741319,2547.102402009383
323.649839,2663.2018082708755
324.0270864,2792.023025661009
324.40588419999995,2933.424127493148
324.7862428,3093.656859333103
325.16817260000005,3270.0750356122626
325.5516841,3470.2892159998983
325.9367879,3704.4190898919337
326.32349480000005,3962.555596884367
326.7118154,4255.151079820397
327.1017607,4597.325465338628
327.4933418,4972.611581970484
327.88656960000003,5391.050444013802
328.2814555,5851.436763451447
328.6780106,6336.878561134607
329.0762465,6898.457405033424
329.47617460000004,7482.874593584318
329.8778065,8138.700630452679
330.281154,8852.470375176465
330.6862289,9645.525843659214
331.0930432,10520.514843570389
331.5016088,11507.30133174085
331.911938,12602.958333666458
332.32404310000004,13813.761159177113
332.7379364,15139.190755649795
333.1536305,16586.55429686595
333.571138,18129.693061589624
333.9904716,19774.1752919608
334.4116443,21482.32464571444
334.834669,23259.08388350249
335.2595588,25064.028287254445
335.686327,26911.4341137592
336.114987,28782.78679299088
336.5455522,30677.379460520733
336.9780363,32600.25342625872
337.41245310000005,34558.070589797106
337.8488164,36546.58662455621
338.28714019999995,38595.76184039686
338.7274388,40660.70311726246
339.1697264,42785.83552733236
339.6140175,44926.93490011107
340.06032660000005,47103.30129826581
340.5086685,49257.95164521888
340.959058,51400.283630411526
341.4115102,53525.17042960462
341.8660403,55625.76889664536
342.32266339999995,57643.20265930055
342.7813952,59649.80268639081
343.24225110000003,61631.65750127134
343.70524710000007,63592.47412059094
344.17039889999995,65581.4310473777
344.6377228,67590.39258162735
345.1072349,69608.47278614191
345.5789517,71711.51870189763
346.0528897,73853.7397047445
346.5290657,76035.44340210492
347.0074967,78166.39717776698
347.48819960000003,80257.49751082933
347.9711917,82184.30582026047
348.45649060000005,83974.71207409284
348.9441137,85448.60150743497
349.434079,86642.77266349724
349.9264043,87479.45758664924
350.4211078,87958.8343945501
350.9182079,88126.53179135578
351.4177232,87951.1965644126
351.9196722,87570.5063418162
352.42407410000004,87065.95373130307
352.9309478,86520.92007980675
353.4403127,86120.2916317687
353.95218839999995,85952.21714705999
354.4665945,86143.48924414343
354.983551,86827.13153033478
355.503078,88023.08975772416
356.025196,89858.63935070184
356.5499253,92292.32982525456
357.077287,95273.53178303831
357.6073018,98804.83018123488
358.1399912,102726.50109650582
358.6753765,106927.85987528382
359.2134795,111276.69279414113
359.754322,115640.64706273994
360.2979263,119852.77259001134
360.8443147,123869.99308381524
361.3935098,127551.71219372608
361.9455346,130898.88407795154
362.5004122,133900.51464753802
363.058166,136637.68850573848
363.61881960000005,139198.1327328969
364.1823969,141667.80356292592
364.7489221,144198.56804257195
365.3184196,146877.07670306048
365.8909141,149794.7467795845
366.4664305,153055.76655003586
367.0449943,156582.47088402105
367.6266307,160379.2078416574
368.2113658,164361.843373755
368.7992255,168397.24911654452
369.3902363,172364.63499879983
369.9844249,176012.27488161105
370.5818182,179187.18020490863
371.1824436,181757.2151981476
371.7863286000001,183668.1431586316
372.3935012,184662.43585166728
373.0039896,184811.97248902085
373.6178223,184097.29659609337
374.2350283,182686.04538485117
374.8556368,180548.10466092423
375.4796772,177941.83880763352
376.1071796,175004.69144394447
376.7381741,171959.6108109142
377.3726913,169000.27179978724
378.0107622,166324.46549196172
378.652418,164024.44313046278
379.2976904,162254.89399241988
379.9466115,161030.9082296167
380.5992136,160365.45486080935
381.2555296,160175.9814473937
381.9155926,160466.8735843831
382.5794362,161019.03775602632
383.2470943,161915.6077450558
383.9186014,163031.11955987633
384.5939922,164292.47595284609
385.2733019,165871.45456367053
385.9565661,167765.74219426114
386.6438209,170120.34264709766
387.3351027,173213.55375542262
388.0304484,177265.89545213655
388.7298955,182396.94647907067
389.4334817,188866.1243841447
390.1412452,196848.375809374
390.853225,206439.4487019475
391.56946,217606.4036910277
392.2899901,230177.7885281869
393.0148555,243966.85470965828
393.7440968,258555.14144908809
394.4777551,273544.01948575285
395.2158722,288676.9476268144
395.9584903,303249.5245754113
396.7056521,316996.3481513768
397.457401,329734.986880539
398.2137806,341423.46983643854
398.9748353,352087.6117119561
399.7406101,361996.00610759866
400.5111505,371321.9224753052
401.2865024,380542.5709976375
402.0667126,390046.9893702687
402.8518283,400144.08068175055
403.6418973,411059.73179234256
404.436968,423090.9814542125
405.2370896,436073.61311305966
406.0423117,450157.711942819
406.8526847,465184.7991722353
407.66825960000006,481196.9300878811
408.4890879,498091.3815669756
409.3152221,515981.0650789918
410.1467152,534878.6484951148
410.9836208,555151.0265425891
411.8259934,576979.4905395671
412.673888,600704.0170727858
413.5273605,626675.4705217681
414.38646760000006,654877.4738056104
415.2512664,685486.8797069222
416.1218152,718225.0366988943
416.9981727,752792.082555015
417.8803987,788752.4013612893
418.7685535,825450.0123774409
419.6626985,862232.0789333415
420.5628957,898559.2589097233
421.4692081,933529.7115005156
422.3816994,967096.7924083164
423.3004343,999198.877294558
424.2254783,1030106.6973535416
425.1568978,1060325.3952644018
426.0947602,1091181.7302297987
427.0391337,1123522.58406319
427.9900874,1159418.632453268
428.9476917,1199976.3826694258
429.9120175,1246464.8409921709
430.8831369,1299856.256504503
431.8611232,1360848.8156330918
432.8460504,1429035.2939763274
433.8379937,1504017.4577041192
434.8370293,1584189.9126814257
435.8432345,1668163.4848425288
436.8566878,1753368.533835269
437.8774686,1838446.3007161256
438.9056575,1920944.059277876
439.9413364,1999459.9096247973
440.9845882,2073361.3338511416
442.035497,2141693.222123424
443.0941482,2205072.489242325
444.1606283,2264370.1201737304
445.23502520000005,2321452.097254633
446.317428,2377153.228735355
447.407927,2434320.6706497674
448.5066141,2495054.8325120937
449.6135822,2560180.8513504826
450.7289258,2632292.759182278
451.85274060000006,2712271.853636166
452.9851239,2800904.276470707
454.1261744,2898892.563247375
455.2759921,3006258.011260401
456.4346788,3122618.6169388173
457.6023374,3246559.664757376
458.7790727,3376982.8096931223
459.9649909,3512471.2784828544
461.1601998,3651186.12521736
462.364809,3792149.933032312
463.5789295,3932515.840665469
464.8026741000001,4072246.4133829935
466.0361575,4211329.320292555
467.2794956999999,4350440.502462336
468.5328070000001,4490249.479859548
469.7962111000001,4633438.973940729
471.0698299,4781053.034272153
472.3537868,4932654.489285747
473.6482074,5085754.036538552
474.9532192,5237982.139108221
476.2689517,5387191.898334892
477.5955362,5527964.926519554
478.93310639999993,5656574.946938781
480.2817979,5767245.24235884
481.6417484,5855821.5346195325
483.01309800000007,5924541.4721143525
484.3959889,5973772.218262646
485.7905654,6007372.392635354
487.1969743,6027758.344855599
488.6153648,6038165.235092001
490.0458884,6041270.479356498
491.488699,6041878.351566745
492.943953,6041201.347217509
494.4118094,6041091.203844394
495.8924299,6041459.199448405
497.3859785,6041405.577238501
498.8926222,6041271.243346242
500.4125306,6041383.226601425
501.9458762,6041541.1474711625
503.4928341,6041558.652733449
505.0535827,6041941.109514566
506.628303,6041302.296506942
508.2171791999999,6041435.635970033
509.8203986,6041740.470966172
511.4381515,6041428.9490394825
513.0706316000001,6041073.627009157
514.7180356,6041604.19574923
516.3805639,6041792.410159899
518.0584200000001,6041017.6293435525
519.7518110000001,6040988.726407943
521.4609475999999,6041340.204994006
523.186044,6041553.489952855
524.927318,6041174.220716595
526.6849915,6041301.149915053
528.45929,6041527.9705697885
530.2504428000001,6041425.386408202
532.0586836,6041683.281241385
533.8842498,6040916.722092087
535.7273833,6041237.333980079
537.5883299,6041575.282223217
539.46734,6041290.1785850525
541.3646685,6041187.875118922
543.2805745000001,6041513.262123569
545.2153222000001,6041550.816245501
547.1691801,6041253.301095587
549.1424218999999,6041385.660125085
551.1353259,6041374.204000275
553.1481756000001,6041106.401155079
555.1812597,6041688.281263447
557.2348721,6041084.942115404
559.3093121,6041356.640787149
561.4048845,6041273.776914682
563.5218996,6041765.013488049
565.6606737000001,6041383.360431703
567.8215287,6041300.23652265
570.0047927,6040949.998926814
572.2107997,6041000.216200862
574.4398902,6041432.802451623
576.692411,6041690.818936053
578.9687155,6041549.646122217
581.2691637,6041445.156248419
583.5941226,6041670.738781209
585.943966,6041207.365425138
588.3190752,6041225.543411083
590.7198384999999,6041220.219084567
593.1466518,6041356.154414478
595.5999188999999,6041431.774291736
598.0800512,6041546.092247522
600.5874682,6041422.37889601
603.1225977000001,6041218.705083511
605.6858758999999,6040893.5734396735
608.2777476,6041652.163278148
610.8986664,6041390.57816858
613.549095,6041566.318453512
616.2295054,6041599.41200486
618.940379,6040243.766376548
621.6822068,6040980.752317825
624.4554901,6041561.427341563
627.2607402000001,6040416.529646796
630.0984786,6042565.918635184
632.9692378999999,6039234.109532853
635.8735614,6042195.1902200375
638.8120038,6041789.574139888
641.7851312999999,6041678.169360989
650.5455028,6041684.580826319
651.4056144,6041370.302348843
652.2683836,6041758.53502382
653.1338237000001,6041033.48180772
654.0019482999999,6041398.277759437
654.8727708,6041174.869245926
655.7463047,6041098.4605098935
656.6225636,6041247.998199501
657.501561,6041213.102491157
658.3833105,6041675.173506688
659.2678255,6041354.862794315
660.1551197000001,6041644.441429223
661.0452068,6041939.220913758
661.9381002,6041391.46357243
662.8338137000001,6041566.783747729
663.7323607999999,6041506.331844827
664.6337553,6041395.154352518
665.5380107000001,6041174.928814688
666.4451407,6041789.567108886
667.355159,6041768.990847449
668.2680793,6041025.600701578
669.1839152000001,6041878.621230503
670.1026805,6041536.203329182
671.0243889,6041817.049782247
671.949054,6041288.980459927
672.8766895,6041271.116313018
673.8073092,6041228.570076198
674.7409267,6041021.87285016
675.6775557999999,6041509.762488304
676.6172101,6041406.773123708
677.5599033,6041372.668337625
678.5056492000001,6041317.116322317
679.4544612999999,6041289.512202607
680.4063535,6041134.786884902
681.3613392999999,6041533.216924714
682.3194324,6041266.774412323
683.2806465,6041136.6792547135
684.2449952000001,6041656.735559247
685.2124921,6041453.935218197
686.1831509,6041477.807051958
687.1569850999999,6041447.407197123
688.1340083,6040951.0301357685
689.1142341,6041551.977994118
690.097676,6041295.175980351
691.0843474999999,6041496.867909148
692.0742622,6041330.458684293
693.0674334,6041360.913656178
694.0638748,6041843.168072684
695.0635996,6041188.541090461
696.0666212,6041507.856637272
697.0729531000001,6041130.160638803
698.0826086,6041226.637563645
699.0956008999999,6041517.02129734
700.1119432999999,6041433.962947777
701.1316491,6041447.719601933
702.1547314,6041815.003225118
703.1812034,6040981.717873668
704.2110782000001,6040967.6351438975
705.2443688999999,6041738.733177078
706.2810885,6041548.596795866
707.3212499,6041271.804002987
708.3648661000001,6041728.899340636
709.41195,6041584.068917628
710.4625143999999,6041240.915375478
711.5165721,6041437.214353087
712.5741357,6041658.888258887
713.6352181,6041853.817453749
714.6998317000001,6041671.885354993
715.7679891,6041130.504671548
716.8397027999999,6041436.080231153
717.9149852,6041318.773342314
718.9938487000001,6041110.558645267
720.0763055,6041722.756696959
721.162368,6041509.564044408
722.2520481,6041873.071762422
723.3453581,6041526.665576748
724.4423098,6041324.880358534
725.5429153,6041484.095598589
726.6471863,6041026.719533288
727.7551346,6041408.608434394
728.866772,6041784.03417271
729.9821099,6041725.843732835
731.1011599,6041513.788835146
732.2239335,6041210.168393136
733.3504419,6041645.331585477
734.4806963999999,6040885.036336835
735.6147081,6041689.546074187
736.7524882,6041305.1218696935
737.8940474,6041200.265325408
739.0393967,6041800.426085106
740.1885467999999,6041282.587589228
741.3415084,6041523.938211418
742.498292,6041349.3987891525
743.658908,6041682.543470183
744.8233667999999,6041026.177558086
745.9916785,6041609.620689474
747.1638532000001,6041236.894622227
748.3399009,6041267.287163357
749.5198315,6040997.277771267
750.7036546,6041894.717999257
751.89138,6041019.960727064
753.0830171,6041294.731642417
754.2785752999999,6041196.609560045
755.4780638,6040896.320479778
756.6814917,6041697.931365322
757.8888678999999,6041314.892698192
759.1002014999999,6041291.76002809
760.3155009,6041289.917748722
761.5347749,6036780.657062923
762.7580318,6023964.05980649
763.98528,5997712.657800937
765.2165276000001,5955951.308974412
766.4517825,5895347.040713949
767.6910527000001,5813382.031961722
768.9343458999999,5705559.672415217
770.1816697,5569875.59638177
771.4330313999999,5410181.127787641
772.6884382999999,5231843.763107789
773.9478975,5039085.463048446
775.211416,4832980.524139859
776.4790005,4616379.994471286
777.7506578,4391418.445752092
779.0263942,4162201.13336868
780.3062162,3932472.826492075
781.5901297,3704004.682353642
782.8781409,3478031.841765556
784.1702554999999,3257889.636634962
785.4664793,3047456.7490209923
786.7668176,2849790.805837604
788.0712758,2667880.449633716
789.3798591,2503522.8423466543
790.6925722999999,2356380.8811159288
792.0094204,2226130.71682236
793.3304079,2110622.710441304
794.6555392000001,2007214.1856742024
795.9848187000001,1913150.76315576
797.3182504,1825846.586434492
798.6558382999999,1742977.564362195
799.9975861,1663641.2775876955
801.3434973,1585741.904297726
802.6935752999999,1510419.1496726065
804.0478232999999,1437564.072187647
805.4062443,1367628.7720231244
806.7688411,1301695.3845820487
808.1356164,1240120.060906805
809.5065726,1183657.899297768
810.881712,1132334.1536698125
812.2610367000001,1085876.9113334347
813.6445485,1043587.3167137622
815.0322493,1004697.6743276272
816.4241404,968409.006576656
817.8202233,933318.2401410504
819.2204991,899116.5702209264
820.6249687999999,864897.1098753907
822.0336331,830232.955694159
823.4464925999999,794968.3611602952
824.8635477000001,759564.773113662
826.2847987,724118.5188902372
827.7102456,689123.515936417
829.1398882,655092.694732433
830.5737261,622111.7128145909
832.0117589,590517.13129382
833.4539857000001,560695.1867076791
834.9004057999999,532372.5912337779
836.3510179,505560.8878744025
837.8058209,479851.1261874744
839.2648132999999,455164.5877465536
840.7279934000001,431060.8606945975
842.1953594,407389.4142823333
843.6669092,384107.6578465593
845.1426408,361062.00322486064
846.6225517000001,338163.1508206549
848.1066392999999,315524.3289994862
849.5949009999999,293031.8247583148
851.0873337999999,271018.12152723875
852.5839347000001,249467.1316309073
854.0847002999999,228473.33789758905
855.5896273,208273.924826504
857.0987119999999,188741.7572744613
858.6119507000001,170146.76381401625
860.1293393999999,152510.40892807208
861.650874,136164.089540954
863.1765502000001,120960.25721488072
864.7063635,107014.17990464352
866.2403094,94338.80468785512
867.778383,82941.22315808732
869.3205793999999,72875.05904464095
870.8668935000001,63972.42718596479
872.4173199999999,56125.52867552271
873.9718536,49276.025414478776
875.5304886,43293.759152407234
877.0932193,38158.80559640124
878.6600399,33686.803771548395
880.2309443,29739.35129457298
881.8059264000001,26120.05528725268
883.3849798,22804.046260033087
884.9680981,19749.757825731333
886.5552747000002,16862.142316048292
888.1465029,14146.787363960331
889.7417757000001,11569.155556185571
891.3410862,9090.57184702946
892.9444273,6825.763449366958
894.5517916000001,4938.185893382236
896.1631719000001,3421.853088742012
897.7785605,2209.524925941165
899.3979498,1303.306992236457
901.0213321,660.9184241964713
902.6486995,256.61736409407644
904.280044,73.1600683633893
905.9153575,34.8168960149347
907.5546319,13.697765457150387
909.1978586,4.806466342541204
910.8450295,-3.375389010866936
912.4961358,-1.945838213316483
914.1511691,2.143651113792037
915.8101205,-5.588724546315235
917.4729813,-0.0847166052511163
919.1397426,-3.16334733574574
920.8103953,0.4415389257802514
922.4849303,4.762325317972104
924.1633386,0.3367390488550703
925.8456109,-2.954393976771409
927.5317378,1.1213101835771502
929.22171,-1.1784167152442042
930.9155179,-0.1959820145603092
932.6131521,2.623685655736
934.3146028,3.508808964553748
936.0198606,-1.4092467872262948
937.7289155,3.357051064217856
939.4417579,-0.1433549982058296
941.1583779,3.4924909085186995
942.8787656,1.7552833197681612
944.6029109,1.0438529115219704
946.3308041,1.61116527028671
948.0624349,-1.6406580822307812
949.7977933,0.0303627546615611
951.5368692,1.0054468414848572
953.2796523,2.8825024563870287
955.0261327,2.038386217692225
956.7762999,-0.9961022088620024
958.5301437,0.3059147389799099
960.2876539,-0.9832630871108788
962.0488201,-2.0465408019560334
963.813632,-3.145091001415989
965.5820793,-1.6500203217407448
967.3541517,-3.931627784697047
969.1298386,2.105018682888055
970.9091298,1.7033514814049606
972.6920149,-2.722886210281976
974.4784835,-0.4818640940231268
976.2685251,-0.3512474515183997
978.0621293,-4.374340339645181
979.8592859,-0.1795326001418748
981.6599843,1.1326973448076738
983.4642142,-1.3699780389486216
985.2719651,1.4194941617328218
987.0832269,-2.0340671427426784
988.897989,0.5951808195257647
990.7162412,0.8251880571268331
992.5379731,0.5697323218961414
994.3631745,-0.1305353913543167
996.191835,-2.5234487474089846
998.0239445,-1.4046168974828863
999.8594926,-1.721517714247634
1001.698469,0.1940873766338494
1003.540864,-2.4828015120146354
1005.386668,-0.2560380296789093
1007.235869,-1.0135027700346122
1009.088458,-1.3882057339090028
1010.944426,-1.4595044843212577
1012.803762,2.695458672122457
1014.666456,-1.7623914860927488
1016.532498,3.563393467847685
1018.401878,0.1326549887647255
1020.274588,2.036567084308109
1022.150616,-4.73185969603898
1024.029953,-1.7019446622146523
1025.912591,-1.3569396311604591
1027.798518,-1.7565954216705633
1029.687726,-0.98573078831702
1031.580205,0.4841937252135517
1033.475945,0.8186167813122637
1035.3749380000002,2.5893260434548018
