wave,flux
306.2504509,940.0973956329376
306.5604242,1302.6356905026005
306.871524,1687.9696770795624
307.18375710000004,2114.517126661851
307.4971302,2552.913015792756
307.8116501,3035.3095322993327
308.1273236,3152.4574484598024
308.4441577,3292.2151739555256
308.7621594,3452.2502709777195
309.0813356,3622.613313957905
309.4016935,3815.6201186417975
309.7232403,4036.970784351646
310.04598300000004,4290.692907398381
310.369929,4565.628089594695
310.6950856,4857.679109434227
311.0214601,5147.723128022842
311.34906010000003,5438.48173032353
311.6778931,5736.024497104339
312.0079665,6029.894152009378
312.33928810000003,6316.002988990713
312.6718655,6603.8243468190085
313.00570639999995,6877.173992652895
313.3408189,7153.874555813579
313.6772106,7440.672904573407
314.0148896,7728.386884616622
314.3538639,8028.95535562122
314.6941415,8363.241727687615
315.0357308,8722.037166204951
315.37863980000003,9119.025245406046
315.7228769,9529.852098264715
316.0684504,10010.027549808998
316.4153688,10508.101013950378
316.76364069999994,11028.215447521949
317.1132746,11575.338829900862
317.4642791,12154.671670173206
317.8166631,12740.500564915312
318.1704352,13355.65412229655
318.5256045,13978.086603648706
318.8821799,14567.473249451396
319.2401704,15213.070013528804
319.5995851,15818.716648784604
319.96043330000003,16442.912925993598
320.3227243,17056.03501196377
320.6864673,17666.76755094594
321.0516719,18276.709152069587
321.4183476,18882.31417301909
321.786504,19461.81274306412
322.1561508,20129.315356066363
322.5272977,20810.548797894025
322.8999548,21567.501313981844
323.2741319,22323.164064255023
323.649839,23246.32754786612
324.0270864,24243.657155794008
324.40588419999995,25359.414204392662
324.7862428,26645.52448119514
325.16817260000005,28122.79219393992
325.5516841,29792.05690710455
325.9367879,31759.73900419592
326.32349480000005,34064.68665104777
326.7118154,36829.60684882668
327.1017607,40152.772332864864
327.4933418,44079.65790167648
327.88656960000003,48885.16032931878
328.2814555,54571.63742457856
328.6780106,61336.16005208212
329.0762465,69255.26569411591
329.47617460000004,78488.39611438834
329.8778065,89109.18664634018
330.281154,101090.0618851599
330.6862289,114397.41657367784
331.0930432,129089.54707298224
331.5016088,144906.3735152015
331.911938,161844.95835509597
332.32404310000004,179623.79957226472
332.7379364,198131.53588202572
333.1536305,217175.8521768381
333.571138,236562.8295560737
333.9904716,256229.8862411397
334.4116443,275890.7623474115
334.834669,295483.75454398984
335.2595588,314832.51906274585
335.686327,333572.6384997293
336.114987,351575.50157335994
336.5455522,368619.3290801541
336.9780363,384414.1476733532
337.41245310000005,398558.899430911
337.8488164,410782.07492574217
338.28714019999995,421146.2249010468
338.7274388,429236.1674842101
339.1697264,434971.2729552864
339.6140175,438501.9591984145
340.06032660000005,439970.3871492156
340.5086685,439670.51799376897
340.959058,437739.0853493997
341.4115102,434805.3299493842
341.8660403,431448.4586357693
342.32266339999995,428249.8840100821
342.7813952,426283.1939180232
343.24225110000003,426197.99356334354
343.70524710000007,428901.94774131343
344.17039889999995,435354.4695664578
344.6377228,446287.59686414624
345.1072349,461984.3566759021
345.5789517,482976.1544454849
346.0528897,508753.5410760974
346.5290657,538807.0448048929
347.0074967,572156.1616263692
347.48819960000003,607127.9714848278
347.9711917,642274.7537090433
348.45649060000005,675742.3207645299
348.9441137,705904.0854439995
349.434079,731261.177986057
349.9264043,750831.5664854038
350.4211078,764010.5917056507
350.9182079,770809.5952027935
351.4177232,771798.266223216
351.9196722,768187.3568006358
352.42407410000004,761145.2664236069
352.9309478,752465.0764340564
353.4403127,743847.6424019424
353.95218839999995,736681.3866300904
354.4665945,732295.3585277684
354.983551,731359.6221064235
355.503078,734547.0841170738
356.025196,741529.6016910233
356.5499253,751792.3154937424
357.077287,764673.5691633942
357.6073018,779268.7084987615
358.1399912,794401.3232414878
358.6753765,809089.0387779631
359.2134795,822400.0451975384
359.754322,834216.5055784598
360.2979263,844057.5056933756
360.8443147,852102.7286696094
361.3935098,859310.3784159559
361.9455346,866031.5383892198
362.5004122,873581.3647000325
363.058166,883246.281366865
363.61881960000005,896381.3244214002
364.1823969,914271.5207077971
364.7489221,938058.4927627824
365.3184196,968622.4647241008
365.8909141,1006396.5798990584
366.4664305,1050974.2914053437
367.0449943,1102079.5949603664
367.6266307,1158867.6969675955
368.2113658,1218974.3446873787
368.7992255,1280578.9552821296
369.3902363,1341410.1421414705
369.9844249,1398878.1623367337
370.5818182,1450374.2084108556
371.1824436,1494423.3286249042
371.7863286000001,1529195.388066301
372.3935012,1553857.5920657762
373.0039896,1567847.282641959
373.6178223,1571413.020491421
374.2350283,1565359.5324903058
374.8556368,1550247.9745881597
375.4796772,1527341.848249772
376.1071796,1497895.23460797
376.7381741,1463374.120293365
377.3726913,1425014.9504378908
378.0107622,1384094.458895067
378.652418,1341846.829797993
379.2976904,1300057.6320351204
379.9466115,1259553.2746840226
380.5992136,1222129.1242575813
381.2555296,1188778.0763956974
381.9155926,1161034.07485791
382.5794362,1139792.733927865
383.2470943,1126216.6956615455
383.9186014,1120771.0167257288
384.5939922,1123649.6930978035
385.2733019,1134806.7312982536
385.9565661,1154713.4036176004
386.6438209,1182213.7903930815
387.3351027,1217020.5238232228
388.0304484,1258590.9054582578
388.7298955,1305275.2874960736
389.4334817,1356758.7816222103
390.1412452,1411615.3768935488
390.853225,1468919.4193783137
391.56946,1527488.2924564723
392.2899901,1586143.0121741036
393.0148555,1643802.4319321015
393.7440968,1699936.3777382206
394.4777551,1755046.1546314796
395.2158722,1809367.065318297
395.9584903,1864001.8162833515
396.7056521,1921076.2135334176
397.457401,1983107.6083871056
398.2137806,2053129.252283948
398.9748353,2133887.0275182263
399.7406101,2227454.1920713875
400.5111505,2335217.119136872
401.2865024,2457417.476425385
402.0667126,2592521.903293855
402.8518283,2737043.443020793
403.6418973,2886071.1616579005
404.436968,3034638.219316043
405.2370896,3176477.6893670773
406.0423117,3306128.1428408963
406.8526847,3419328.8629079354
407.66825960000006,3512041.773565287
408.4890879,3584066.305359401
409.3152221,3634674.785227792
410.1467152,3665925.2949143536
410.9836208,3681761.0645455895
411.8259934,3684929.669398135
412.673888,3679450.4024490006
413.5273605,3668403.905512869
414.38646760000006,3653858.665800198
415.2512664,3637799.561831165
416.1218152,3620679.220104824
416.9981727,3602882.739090301
417.8803987,3583450.164972309
418.7685535,3561809.5584455337
419.6626985,3537131.6428512344
420.5628957,3510110.0894277035
421.4692081,3480895.11010742
422.3816994,3450353.068600145
423.3004343,3419567.8648490333
424.2254783,3389977.342255355
425.1568978,3363281.3601079783
426.0947602,3342068.6962254546
427.0391337,3327948.678824575
427.9900874,3323629.0220290394
428.9476917,3330667.4452644144
429.9120175,3350844.309912533
430.8831369,3386171.957670833
431.8611232,3439541.450410619
432.8460504,3512068.9266314544
433.8379937,3606432.9888110864
434.8370293,3723033.6433163886
435.8432345,3864586.90252566
436.8566878,4030564.645754581
437.8774686,4220891.684831675
438.9056575,4429415.719243025
439.9413364,4650108.663400438
440.9845882,4875329.536712087
442.035497,5096987.938291669
443.0941482,5306936.681510048
444.1606283,5496895.756628137
445.23502520000005,5657810.474275799
446.317428,5786061.0301471865
447.407927,5882812.247089737
448.5066141,5952051.70081662
449.6135822,5997840.82976554
450.7289258,6024548.619448774
451.85274060000006,6037453.286867774
452.9851239,6041274.552986645
454.1261744,6041338.55725635
455.2759921,6041573.310713252
456.4346788,6041520.0935222525
457.6023374,6041834.408066828
458.7790727,6041048.710812775
459.9649909,6042195.925416343
461.1601998,6041489.088337564
462.364809,6041426.510437387
463.5789295,6041826.433115591
464.8026741000001,6041832.412622757
466.0361575,6041300.134897717
467.2794956999999,6041082.991750526
468.5328070000001,6041613.549302675
469.7962111000001,6041831.697193697
471.0698299,6041133.880092901
472.3537868,6041553.989952373
473.6482074,6041159.242520289
474.9532192,6040917.296705485
476.2689517,6041548.312112588
477.5955362,6041122.169395347
478.93310639999993,6041360.085187918
480.2817979,6041328.627528913
481.6417484,6041494.62381865
483.01309800000007,6041473.101116142
484.3959889,6041472.475426894
485.7905654,6041422.432017455
487.1969743,6041432.000524352
488.6153648,6041343.48144348
490.0458884,6041182.122880815
491.488699,6041597.543812681
492.943953,6041180.1388273975
494.4118094,6041695.159940169
495.8924299,6041568.819081629
497.3859785,6041219.689107756
498.8926222,6041239.623162492
500.4125306,6041678.387322155
501.9458762,6041512.485588596
503.4928341,6041511.480889164
505.0535827,6041411.136298869
506.628303,6041831.979595843
508.2171791999999,6041401.559398245
509.8203986,6041522.3196571935
511.4381515,6041366.478520295
513.0706316000001,6041331.261676135
514.7180356,6041466.680621435
516.3805639,6041594.3557757335
518.0584200000001,6041164.225652883
519.7518110000001,6041665.186209256
521.4609475999999,6041234.635277611
523.186044,6041686.833844819
524.927318,6041535.559331307
526.6849915,6041474.002690166
528.45929,6041155.853582017
530.2504428000001,6041304.126675755
532.0586836,6041318.635204768
533.8842498,6041605.611342983
535.7273833,6041337.783773012
537.5883299,6041251.197535157
539.46734,6041072.493860247
541.3646685,6041054.821544862
543.2805745000001,6041587.419860303
545.2153222000001,6041228.701638932
547.1691801,6041499.17354979
549.1424218999999,6041252.784820521
551.1353259,6041711.79422659
553.1481756000001,6041533.834883386
555.1812597,6041473.408400987
557.2348721,6041097.003671602
559.3093121,6041326.405924658
561.4048845,6041450.958140855
563.5218996,6041303.838642628
565.6606737000001,6041640.701058703
567.8215287,6041694.431163008
570.0047927,6041022.600789289
572.2107997,6041664.742439381
574.4398902,6041520.953088064
576.692411,6041325.092141365
578.9687155,6041733.917433264
581.2691637,6041368.8180575
583.5941226,6041894.549410456
585.943966,6041532.562634815
588.3190752,6040982.128580111
590.7198384999999,6041208.763434834
593.1466518,6041305.991194974
595.5999188999999,6041332.866761598
598.0800512,6041431.903899265
600.5874682,6041293.622290162
603.1225977000001,6041706.390221885
605.6858758999999,6041572.385470205
608.2777476,6041390.772044058
610.8986664,6041568.801148014
613.549095,6041753.479168836
616.2295054,6041845.613344451
618.940379,6041454.887757925
621.6822068,6042605.5258298535
624.4554901,6040729.667933924
627.2607402000001,6041511.962377482
630.0984786,6041233.718417888
632.9692378999999,6041494.1048904415
635.8735614,6041025.93325567
638.8120038,6040765.663195154
641.7851312999999,6040590.118596084
644.7935217999999,6042372.334719726
647.8377654,6041626.66218658
650.9184646000001,6041572.4517196985
654.0362346,6041485.128200122
657.1917038,6041976.031458598
660.3855139,6044576.041189055
663.6183202999999,6040088.998543172
665.5380107000001,6041174.928814688
666.4451407,6041789.567108886
666.8907926,6041256.143307473
667.355159,6041768.990847449
668.2680793,6041025.600701578
669.1839152000001,6041878.621230503
670.1026805,6041536.203329182
670.2036149,6038463.339863834
671.0243889,6041817.049782247
671.949054,6041288.980459927
672.8766895,6041271.116313018
673.557486,6041174.771279712
673.8073092,6041228.570076198
674.7409267,6041021.87285016
675.6775557999999,6041509.762488304
676.6172101,6041406.773123708
677.5599033,6041372.668337625
678.5056492000001,6041317.116322317
679.4544612999999,6041289.512202607
680.4063535,6041134.786884902
681.3613392999999,6041533.216924714
682.3194324,6041266.774412323
683.2806465,6041136.6792547135
684.2449952000001,6041656.735559247
685.2124921,6041453.935218197
686.1831509,6041477.807051958
687.1569850999999,6041447.407197123
688.1340083,6040951.0301357685
689.1142341,6041551.977994118
690.097676,6041295.175980351
691.0843474999999,6041496.867909148
692.0742622,6041330.458684293
693.0674334,6041360.913656178
694.0638748,6041843.168072684
695.0635996,6041188.541090461
696.0666212,6041507.856637272
697.0729531000001,6041130.160638803
698.0826086,6041226.637563645
699.0956008999999,6041517.02129734
700.1119432999999,6041433.962947777
701.1316491,6041447.719601933
702.1547314,6041815.003225118
703.1812034,6040981.717873668
704.2110782000001,6040967.6351438975
705.2443688999999,6041738.733177078
706.2810885,6041548.596795866
707.3212499,6041271.804002987
708.3648661000001,6041728.899340636
709.41195,6041584.068917628
710.4625143999999,6041240.915375478
711.5165721,6041437.214353087
712.5741357,6041658.888258887
713.6352181,6041853.817453749
714.6998317000001,6041671.885354993
715.7679891,6041130.504671548
716.8397027999999,6041436.080231153
717.9149852,6041318.773342314
718.9938487000001,6041110.558645267
720.0763055,6041722.756696959
721.162368,6041509.564044408
722.2520481,6041873.071762422
723.3453581,6041526.665576748
724.4423098,6041324.880358534
725.5429153,6041484.095598589
726.6471863,6041026.719533288
727.7551346,6041408.608434394
728.866772,6041784.03417271
729.9821099,6041725.843732835
731.1011599,6041513.788835146
732.2239335,6041210.168393136
733.3504419,6041645.331585477
734.4806963999999,6040885.036336835
735.6147081,6041689.546074187
736.7524882,6041305.1218696935
737.8940474,6041200.265325408
739.0393967,6041800.426085106
740.1885467999999,6041282.587589228
741.3415084,6041523.938211418
742.498292,6041349.3987891525
743.658908,6041682.543470183
744.8233667999999,6041026.177558086
745.9916785,6041609.620689474
747.1638532000001,6041236.894622227
748.3399009,6041267.287163357
749.5198315,6040997.277771267
750.7036546,6041894.717999257
751.89138,6041019.960727064
753.0830171,6041294.731642417
754.2785752999999,6041196.609560045
755.4780638,6040896.320479778
756.6814917,6041697.931365322
757.8888678999999,6041314.892698192
759.1002014999999,6041291.76002809
760.3155009,6041289.917748722
761.5347749,6036780.657062923
762.7580318,6023964.05980649
763.98528,5997712.657800937
765.2165276000001,5955951.308974412
766.4517825,5895347.040713949
767.6910527000001,5813382.031961722
768.9343458999999,5705559.672415217
770.1816697,5569875.59638177
771.4330313999999,5410181.127787641
772.6884382999999,5231843.763107789
773.9478975,5039085.463048446
775.211416,4832980.524139859
776.4790005,4616379.994471286
777.7506578,4391418.445752092
779.0263942,4162201.13336868
780.3062162,3932472.826492075
781.5901297,3704004.682353642
782.8781409,3478031.841765556
784.1702554999999,3257889.636634962
785.4664793,3047456.7490209923
786.7668176,2849790.805837604
788.0712758,2667880.449633716
789.3798591,2503522.8423466543
790.6925722999999,2356380.8811159288
792.0094204,2226130.71682236
793.3304079,2110622.710441304
794.6555392000001,2007214.1856742024
795.9848187000001,1913150.76315576
797.3182504,1825846.586434492
798.6558382999999,1742977.564362195
799.9975861,1663641.2775876955
801.3434973,1585741.904297726
802.6935752999999,1510419.1496726065
804.0478232999999,1437564.072187647
805.4062443,1367628.7720231244
806.7688411,1301695.3845820487
808.1356164,1240120.060906805
809.5065726,1183657.899297768
810.881712,1132334.1536698125
812.2610367000001,1085876.9113334347
813.6445485,1043587.3167137622
815.0322493,1004697.6743276272
816.4241404,968409.006576656
817.8202233,933318.2401410504
819.2204991,899116.5702209264
820.6249687999999,864897.1098753907
822.0336331,830232.955694159
823.4464925999999,794968.3611602952
824.8635477000001,759564.773113662
826.2847987,724118.5188902372
827.7102456,689123.515936417
829.1398882,655092.694732433
830.5737261,622111.7128145909
832.0117589,590517.13129382
833.4539857000001,560695.1867076791
834.9004057999999,532372.5912337779
836.3510179,505560.8878744025
837.8058209,479851.1261874744
839.2648132999999,455164.5877465536
840.7279934000001,431060.8606945975
842.1953594,407389.4142823333
843.6669092,384107.6578465593
845.1426408,361062.00322486064
846.6225517000001,338163.1508206549
848.1066392999999,315524.3289994862
849.5949009999999,293031.8247583148
851.0873337999999,271018.12152723875
852.5839347000001,249467.1316309073
854.0847002999999,228473.33789758905
855.5896273,208273.924826504
857.0987119999999,188741.7572744613
858.6119507000001,170146.76381401625
860.1293393999999,152510.40892807208
861.650874,136164.089540954
863.1765502000001,120960.25721488072
864.7063635,107014.17990464352
866.2403094,94338.80468785512
867.778383,82941.22315808732
869.3205793999999,72875.05904464095
870.8668935000001,63972.42718596479
872.4173199999999,56125.52867552271
873.9718536,49276.025414478776
875.5304886,43293.759152407234
877.0932193,38158.80559640124
878.6600399,33686.803771548395
880.2309443,29739.35129457298
881.8059264000001,26120.05528725268
883.3849798,22804.046260033087
884.9680981,19749.757825731333
886.5552747000002,16862.142316048292
888.1465029,14146.787363960331
889.7417757000001,11569.155556185571
891.3410862,9090.57184702946
892.9444273,6825.763449366958
894.5517916000001,4938.185893382236
896.1631719000001,3421.853088742012
897.7785605,2209.524925941165
899.3979498,1303.306992236457
901.0213321,660.9184241964713
902.6486995,256.61736409407644
904.280044,73.1600683633893
905.9153575,34.8168960149347
907.5546319,13.697765457150387
909.1978586,4.806466342541204
910.8450295,-3.375389010866936
912.4961358,-1.945838213316483
914.1511691,2.143651113792037
915.8101205,-5.588724546315235
917.4729813,-0.0847166052511163
919.1397426,-3.16334733574574
920.8103953,0.4415389257802514
922.4849303,4.762325317972104
924.1633386,0.3367390488550703
925.8456109,-2.954393976771409
927.5317378,1.1213101835771502
929.22171,-1.1784167152442042
930.9155179,-0.1959820145603092
932.6131521,2.623685655736
934.3146028,3.508808964553748
936.0198606,-1.4092467872262948
937.7289155,3.357051064217856
939.4417579,-0.1433549982058296
941.1583779,3.4924909085186995
942.8787656,1.7552833197681612
944.6029109,1.0438529115219704
946.3308041,1.61116527028671
948.0624349,-1.6406580822307812
949.7977933,0.0303627546615611
951.5368692,1.0054468414848572
953.2796523,2.8825024563870287
955.0261327,2.038386217692225
956.7762999,-0.9961022088620024
958.5301437,0.3059147389799099
960.2876539,-0.9832630871108788
962.0488201,-2.0465408019560334
963.813632,-3.145091001415989
965.5820793,-1.6500203217407448
967.3541517,-3.931627784697047
969.1298386,2.105018682888055
970.9091298,1.7033514814049606
972.6920149,-2.722886210281976
974.4784835,-0.4818640940231268
976.2685251,-0.3512474515183997
978.0621293,-4.374340339645181
979.8592859,-0.1795326001418748
981.6599843,1.1326973448076738
983.4642142,-1.3699780389486216
985.2719651,1.4194941617328218
987.0832269,-2.0340671427426784
988.897989,0.5951808195257647
990.7162412,0.8251880571268331
992.5379731,0.5697323218961414
994.3631745,-0.1305353913543167
996.191835,-2.5234487474089846
998.0239445,-1.4046168974828863
999.8594926,-1.721517714247634
1001.698469,0.1940873766338494
1003.540864,-2.4828015120146354
1005.386668,-0.2560380296789093
1007.235869,-1.0135027700346122
1009.088458,-1.3882057339090028
1010.944426,-1.4595044843212577
1012.803762,2.695458672122457
1014.666456,-1.7623914860927488
1016.532498,3.563393467847685
1018.401878,0.1326549887647255
1020.274588,2.036567084308109
1022.150616,-4.73185969603898
1024.029953,-1.7019446622146523
1025.912591,-1.3569396311604591
1027.798518,-1.7565954216705633
1029.687726,-0.98573078831702
1031.580205,0.4841937252135517
1033.475945,0.8186167813122637
1035.3749380000002,2.5893260434548018
1037.277175,1.538102537464364
1039.182645,-2.0127188922791954
1041.09134,2.6250894347966467
1043.003251,0.2137404881779373
1044.918368,-0.0573575810121391
1046.836683,0.7728066703273068
1048.758188,3.079024708981095
