wave,flux
306.2504509,1056.3421339902222
306.5604242,1484.0738470040333
306.871524,2006.4307790510093
307.18375710000004,2577.2418187287994
307.4971302,3196.1536568050337
307.8116501,3853.482018399492
308.1273236,4033.184516469633
308.4441577,4215.208274231283
308.7621594,4384.563961915216
309.0813356,4553.125139871506
309.4016935,4712.37925810764
309.7232403,4876.775411285865
310.04598300000004,5044.213775604661
310.369929,5236.52420674816
310.6950856,5447.979085401924
311.0214601,5691.182941598348
311.34906010000003,5964.105507480304
311.6778931,6273.638922265065
312.0079665,6593.254277674925
312.33928810000003,6956.081454485465
312.6718655,7320.347984311172
313.00570639999995,7691.04466509379
313.3408189,8085.968900550099
313.6772106,8463.666948127258
314.0148896,8845.602085717797
314.3538639,9245.23503748238
314.6941415,9674.176047953431
315.0357308,10110.096446283223
315.37863980000003,10543.427898970836
315.7228769,11039.43212944617
316.0684504,11548.162713063455
316.4153688,12107.217558010709
316.76364069999994,12694.056710384071
317.1132746,13280.678663575767
317.4642791,13889.138953333017
317.8166631,14511.589718928422
318.1704352,15181.940067660797
318.5256045,15845.666625697118
318.8821799,16537.352464232372
319.2401704,17228.053612316853
319.5995851,17998.572755666773
319.96043330000003,18749.43380390325
320.3227243,19550.04516289212
320.6864673,20377.648525082463
321.0516719,21277.392064544907
321.4183476,22195.837596134337
321.786504,23200.22130669181
322.1561508,24232.3905228194
322.5272977,25286.092713554885
322.8999548,26507.56851894596
323.2741319,27763.985133984268
323.649839,29149.68513640305
324.0270864,30716.01114236093
324.40588419999995,32564.81483313908
324.7862428,34638.358531532416
325.16817260000005,37158.5251846499
325.5516841,40140.697486184814
325.9367879,43756.081312959774
326.32349480000005,47945.651489072734
326.7118154,53075.85651016652
327.1017607,58970.43402250565
327.4933418,65822.84724705486
327.88656960000003,73638.6723423214
328.2814555,82451.24270384642
328.6780106,92071.8379189916
329.0762465,102578.28319633428
329.47617460000004,113893.8174981276
329.8778065,125741.71688235448
330.281154,138060.7384232396
330.6862289,150821.91989610172
331.0930432,163787.27973927392
331.5016088,177002.89072471988
331.911938,190377.30966997583
332.32404310000004,203972.57293893816
332.7379364,217631.967073762
333.1536305,231591.5985742761
333.571138,245787.8329638229
333.9904716,260283.04689643125
334.4116443,275131.6470655151
334.834669,290282.8252337789
335.2595588,305805.3716361741
335.686327,321800.830239188
336.114987,338336.44222887163
336.5455522,355399.31842091813
336.9780363,372842.52612075343
337.41245310000005,390968.1162745044
337.8488164,409759.1275276609
338.28714019999995,429290.3013486085
338.7274388,449769.6501622559
339.1697264,470821.8781647205
339.6140175,492625.2952139544
340.06032660000005,514761.5914709464
340.5086685,536795.1047349899
340.959058,558412.1917117931
341.4115102,578779.6888127857
341.8660403,597340.0219077974
342.32266339999995,613182.1151704702
342.7813952,625850.4439790852
343.24225110000003,634530.8278249633
343.70524710000007,639047.5329399307
344.17039889999995,639605.3786125408
344.6377228,636473.6716129039
345.1072349,630371.9155830548
345.5789517,622541.2209600495
346.0528897,614227.4002097128
346.5290657,606955.8915909068
347.0074967,602334.6830127037
347.48819960000003,601378.1347486493
347.9711917,605276.5268341762
348.45649060000005,614447.8396338994
348.9441137,628885.7944764909
349.434079,648298.9099673838
349.9264043,671479.0429547522
350.4211078,697437.2345851448
350.9182079,724645.4308931492
351.4177232,751694.3880773302
351.9196722,777234.700729512
352.42407410000004,801006.9299847431
352.9309478,822231.944158547
353.4403127,841025.5405040686
353.95218839999995,858237.9886546065
354.4665945,874730.1805775084
354.983551,891457.7978181235
355.503078,909464.3487525526
356.025196,929693.414581759
356.5499253,952529.4748333663
357.077287,978373.022045998
357.6073018,1006873.0299214936
358.1399912,1037839.7415626948
358.6753765,1070396.097203592
359.2134795,1103966.6928560922
359.754322,1137960.9505332992
360.2979263,1171725.6579495172
360.8443147,1205046.346187035
361.3935098,1237552.0056451624
361.9455346,1269130.922859432
362.5004122,1300205.6224404934
363.058166,1330578.048410536
363.61881960000005,1360076.3255773017
364.1823969,1389211.2880804918
364.7489221,1417303.2046343512
365.3184196,1444766.8831819098
365.8909141,1470582.6323695255
366.4664305,1494909.9199299018
367.0449943,1517009.2773236032
367.6266307,1536394.2010902218
368.2113658,1552548.7099327303
368.7992255,1565127.7031599674
369.3902363,1573523.072072623
369.9844249,1577517.0618352387
370.5818182,1576971.4510278772
371.1824436,1571940.2742974646
371.7863286000001,1562496.191135026
372.3935012,1549016.23972017
373.0039896,1532701.54585297
373.6178223,1514175.9976652972
374.2350283,1494616.811824201
374.8556368,1475984.9015783274
375.4796772,1458337.7866421388
376.1071796,1443057.5636814304
376.7381741,1430733.0460606455
377.3726913,1421664.2571152546
378.0107622,1416278.6220380373
378.652418,1414303.9095081622
379.2976904,1415338.7290337556
379.9466115,1420073.3259676131
380.5992136,1428212.9015839512
381.2555296,1440264.8525162342
381.9155926,1457456.698722301
382.5794362,1480279.3895191706
383.2470943,1509707.8925948068
383.9186014,1546505.3782258078
384.5939922,1591233.5415236752
385.2733019,1643453.290016578
385.9565661,1702551.677837113
386.6438209,1766732.9129454468
387.3351027,1834929.501633695
388.0304484,1903848.56657332
388.7298955,1970916.285444268
389.4334817,2034172.7399669304
390.1412452,2091177.9360980112
390.853225,2140911.605416356
391.56946,2181301.72408326
392.2899901,2212389.370776555
393.0148555,2233797.8109164783
393.7440968,2247024.3786527743
394.4777551,2253511.599836049
395.2158722,2255123.116032219
395.9584903,2253498.583196638
396.7056521,2251197.9521051818
397.457401,2250487.154627157
398.2137806,2253726.291354729
398.9748353,2263934.649190516
399.7406101,2281939.245799012
400.5111505,2309687.232602533
401.2865024,2348046.65111322
402.0667126,2396950.402171856
402.8518283,2456305.832793376
403.6418973,2524958.0953385923
404.436968,2600790.043299236
405.2370896,2681673.574631748
406.0423117,2764694.5591632323
406.8526847,2847124.471627017
407.66825960000006,2926174.4868603507
408.4890879,2999256.479928884
409.3152221,3065617.786937478
410.1467152,3125484.5623655133
410.9836208,3179304.370593192
411.8259934,3230055.30128184
412.673888,3282256.5944129126
413.5273605,3340345.4762414494
414.38646760000006,3409859.689256132
415.2512664,3495334.744773092
416.1218152,3601894.94348661
416.9981727,3731824.902129672
417.8803987,3884619.73899896
418.7685535,4057933.165393904
419.6626985,4247024.995360544
420.5628957,4445302.926115905
421.4692081,4644168.324461964
422.3816994,4832980.87393702
423.3004343,5003114.40147364
424.2254783,5147236.725443589
425.1568978,5259201.8934531165
426.0947602,5337307.883934032
427.0391337,5382627.181939522
427.9900874,5401079.198042044
428.9476917,5399408.796029437
429.9120175,5389197.555362683
430.8831369,5380558.133830642
431.8611232,5383264.852972868
432.8460504,5402371.807075904
433.8379937,5440924.005071859
434.8370293,5499053.110258332
435.8432345,5574126.774184298
436.8566878,5659412.108499047
437.8774686,5746650.845995196
438.9056575,5826726.517614232
439.9413364,5894290.703466281
440.9845882,5948713.723256516
442.035497,5989884.748135268
443.0941482,6018024.603018401
444.1606283,6033176.639361273
445.23502520000005,6040087.670205938
446.317428,6041538.439184478
447.407927,6041609.412293055
448.5066141,6041473.720682469
449.6135822,6041304.889888484
450.7289258,6041146.791191896
451.85274060000006,6040982.8071676
452.9851239,6041504.619346469
454.1261744,6041070.97740029
455.2759921,6041669.60865025
456.4346788,6041591.749028972
457.6023374,6041315.036818129
458.7790727,6041094.638430084
459.9649909,6041251.5943911765
461.1601998,6041321.419168525
462.364809,6041897.592999767
463.5789295,6041346.553186631
464.8026741000001,6041442.875218101
466.0361575,6041475.789017866
467.2794956999999,6041149.875625034
468.5328070000001,6041482.571555357
469.7962111000001,6041803.117385938
471.0698299,6041306.229980295
472.3537868,6041138.512954166
473.6482074,6041709.634089715
474.9532192,6041546.553113606
476.2689517,6041440.570898706
477.5955362,6041284.707426583
478.93310639999993,6041485.593336041
480.2817979,6041068.832007133
481.6417484,6041830.880869945
483.01309800000007,6041422.682287217
484.3959889,6041137.372415568
485.7905654,6041060.6642040815
487.1969743,6041672.614132416
488.6153648,6041804.8672802
490.0458884,6041877.066076124
491.488699,6041387.4739221325
492.943953,6041258.2495092815
494.4118094,6041709.113922045
495.8924299,6041340.104838412
497.3859785,6041696.3548590485
498.8926222,6042135.23884414
500.4125306,6041610.393269874
501.9458762,6041090.046341699
503.4928341,6041697.041389292
505.0535827,6041624.027186045
506.628303,6041571.929062641
508.2171791999999,6041007.2949348
509.8203986,6041562.6024385765
511.4381515,6041871.599594265
513.0706316000001,6041391.888110602
514.7180356,6041723.7725799
516.3805639,6041090.955686851
518.0584200000001,6041164.413789527
519.7518110000001,6041527.804246887
521.4609475999999,6041179.313554008
523.186044,6041213.037730712
524.927318,6041214.966965665
526.6849915,6041479.228196448
528.45929,6041391.713503137
530.2504428000001,6041567.745810932
532.0586836,6041172.708285001
533.8842498,6041533.530309709
535.7273833,6041453.059530051
537.5883299,6041436.647440595
539.46734,6041725.921663327
541.3646685,6041444.589669134
543.2805745000001,6041759.732896432
545.2153222000001,6041243.075316884
547.1691801,6041139.18118417
549.1424218999999,6041499.9384786375
551.1353259,6041141.179072182
553.1481756000001,6041538.040198071
555.1812597,6041439.555559998
557.2348721,6041273.95408038
559.3093121,6041021.219164928
561.4048845,6041379.023009039
563.5218996,6042012.626417671
565.6606737000001,6041592.943128512
567.8215287,6041206.34160536
570.0047927,6041562.562454351
572.2107997,6041570.424751247
574.4398902,6041430.531375892
576.692411,6041730.337981889
578.9687155,6041409.028580906
581.2691637,6041506.765593551
583.5941226,6041358.573837986
585.943966,6041301.638477455
588.3190752,6041279.269067565
590.7198384999999,6041704.252424471
593.1466518,6041485.338401536
595.5999188999999,6041232.821400528
598.0800512,6041298.825046567
600.5874682,6041813.993664673
603.1225977000001,6041109.838875768
605.6858758999999,6041511.427261598
608.2777476,6041279.895173358
610.8986664,6041100.65431095
613.549095,6041649.60679455
616.2295054,6041305.542945765
618.940379,6041315.946772464
621.6822068,6040873.603128164
624.4554901,6043075.976993085
627.2607402000001,6041379.558024044
630.0984786,6040786.683688307
632.9692378999999,6040030.283799976
635.8735614,6040961.0330952685
638.8120038,6042770.7287197765
641.7851312999999,6039727.31186372
644.7935217999999,6042777.893226104
647.8377654,6040860.337610562
650.9184646000001,6040705.044167351
654.0362346,6041500.103711964
663.7323607999999,6041506.331844827
664.6337553,6041395.154352518
665.5380107000001,6041174.928814688
666.4451407,6041789.567108886
667.355159,6041768.990847449
668.2680793,6041025.600701578
669.1839152000001,6041878.621230503
670.1026805,6041536.203329182
671.0243889,6041817.049782247
671.949054,6041288.980459927
672.8766895,6041271.116313018
673.8073092,6041228.570076198
674.7409267,6041021.87285016
675.6775557999999,6041509.762488304
676.6172101,6041406.773123708
677.5599033,6041372.668337625
678.5056492000001,6041317.116322317
679.4544612999999,6041289.512202607
680.4063535,6041134.786884902
681.3613392999999,6041533.216924714
682.3194324,6041266.774412323
683.2806465,6041136.6792547135
684.2449952000001,6041656.735559247
685.2124921,6041453.935218197
686.1831509,6041477.807051958
687.1569850999999,6041447.407197123
688.1340083,6040951.0301357685
689.1142341,6041551.977994118
690.097676,6041295.175980351
691.0843474999999,6041496.867909148
692.0742622,6041330.458684293
693.0674334,6041360.913656178
694.0638748,6041843.168072684
695.0635996,6041188.541090461
696.0666212,6041507.856637272
697.0729531000001,6041130.160638803
698.0826086,6041226.637563645
699.0956008999999,6041517.02129734
700.1119432999999,6041433.962947777
701.1316491,6041447.719601933
702.1547314,6041815.003225118
703.1812034,6040981.717873668
704.2110782000001,6040967.6351438975
705.2443688999999,6041738.733177078
706.2810885,6041548.596795866
707.3212499,6041271.804002987
708.3648661000001,6041728.899340636
709.41195,6041584.068917628
710.4625143999999,6041240.915375478
711.5165721,6041437.214353087
712.5741357,6041658.888258887
713.6352181,6041853.817453749
714.6998317000001,6041671.885354993
715.7679891,6041130.504671548
716.8397027999999,6041436.080231153
717.9149852,6041318.773342314
718.9938487000001,6041110.558645267
720.0763055,6041722.756696959
721.162368,6041509.564044408
722.2520481,6041873.071762422
723.3453581,6041526.665576748
724.4423098,6041324.880358534
725.5429153,6041484.095598589
726.6471863,6041026.719533288
727.7551346,6041408.608434394
728.866772,6041784.03417271
729.9821099,6041725.843732835
731.1011599,6041513.788835146
732.2239335,6041210.168393136
733.3504419,6041645.331585477
734.4806963999999,6040885.036336835
735.6147081,6041689.546074187
736.7524882,6041305.1218696935
737.8940474,6041200.265325408
739.0393967,6041800.426085106
740.1885467999999,6041282.587589228
741.3415084,6041523.938211418
742.498292,6041349.3987891525
743.658908,6041682.543470183
744.8233667999999,6041026.177558086
745.9916785,6041609.620689474
747.1638532000001,6041236.894622227
748.3399009,6041267.287163357
749.5198315,6040997.277771267
750.7036546,6041894.717999257
751.89138,6041019.960727064
753.0830171,6041294.731642417
754.2785752999999,6041196.609560045
755.4780638,6040896.320479778
756.6814917,6041697.931365322
757.8888678999999,6041314.892698192
759.1002014999999,6041291.76002809
760.3155009,6041289.917748722
761.5347749,6036780.657062923
762.7580318,6023964.05980649
763.98528,5997712.657800937
765.2165276000001,5955951.308974412
766.4517825,5895347.040713949
767.6910527000001,5813382.031961722
768.9343458999999,5705559.672415217
770.1816697,5569875.59638177
771.4330313999999,5410181.127787641
772.6884382999999,5231843.763107789
773.9478975,5039085.463048446
775.211416,4832980.524139859
776.4790005,4616379.994471286
777.7506578,4391418.445752092
779.0263942,4162201.13336868
780.3062162,3932472.826492075
781.5901297,3704004.682353642
782.8781409,3478031.841765556
784.1702554999999,3257889.636634962
785.4664793,3047456.7490209923
786.7668176,2849790.805837604
788.0712758,2667880.449633716
789.3798591,2503522.8423466543
790.6925722999999,2356380.8811159288
792.0094204,2226130.71682236
793.3304079,2110622.710441304
794.6555392000001,2007214.1856742024
795.9848187000001,1913150.76315576
797.3182504,1825846.586434492
798.6558382999999,1742977.564362195
799.9975861,1663641.2775876955
801.3434973,1585741.904297726
802.6935752999999,1510419.1496726065
804.0478232999999,1437564.072187647
805.4062443,1367628.7720231244
806.7688411,1301695.3845820487
808.1356164,1240120.060906805
809.5065726,1183657.899297768
810.881712,1132334.1536698125
812.2610367000001,1085876.9113334347
813.6445485,1043587.3167137622
815.0322493,1004697.6743276272
816.4241404,968409.006576656
817.8202233,933318.2401410504
819.2204991,899116.5702209264
820.6249687999999,864897.1098753907
822.0336331,830232.955694159
823.4464925999999,794968.3611602952
824.8635477000001,759564.773113662
826.2847987,724118.5188902372
827.7102456,689123.515936417
829.1398882,655092.694732433
830.5737261,622111.7128145909
832.0117589,590517.13129382
833.4539857000001,560695.1867076791
834.9004057999999,532372.5912337779
836.3510179,505560.8878744025
837.8058209,479851.1261874744
839.2648132999999,455164.5877465536
840.7279934000001,431060.8606945975
842.1953594,407389.4142823333
843.6669092,384107.6578465593
845.1426408,361062.00322486064
846.6225517000001,338163.1508206549
848.1066392999999,315524.3289994862
849.5949009999999,293031.8247583148
851.0873337999999,271018.12152723875
852.5839347000001,249467.1316309073
854.0847002999999,228473.33789758905
855.5896273,208273.924826504
857.0987119999999,188741.7572744613
858.6119507000001,170146.76381401625
860.1293393999999,152510.40892807208
861.650874,136164.089540954
863.1765502000001,120960.25721488072
864.7063635,107014.17990464352
866.2403094,94338.80468785512
867.778383,82941.22315808732
869.3205793999999,72875.05904464095
870.8668935000001,63972.42718596479
872.4173199999999,56125.52867552271
873.9718536,49276.025414478776
875.5304886,43293.759152407234
877.0932193,38158.80559640124
878.6600399,33686.803771548395
880.2309443,29739.35129457298
881.8059264000001,26120.05528725268
883.3849798,22804.046260033087
884.9680981,19749.757825731333
886.5552747000002,16862.142316048292
888.1465029,14146.787363960331
889.7417757000001,11569.155556185571
891.3410862,9090.57184702946
892.9444273,6825.763449366958
894.5517916000001,4938.185893382236
896.1631719000001,3421.853088742012
897.7785605,2209.524925941165
899.3979498,1303.306992236457
901.0213321,660.9184241964713
902.6486995,256.61736409407644
904.280044,73.1600683633893
905.9153575,34.8168960149347
907.5546319,13.697765457150387
909.1978586,4.806466342541204
910.8450295,-3.375389010866936
912.4961358,-1.945838213316483
914.1511691,2.143651113792037
915.8101205,-5.588724546315235
917.4729813,-0.0847166052511163
919.1397426,-3.16334733574574
920.8103953,0.4415389257802514
922.4849303,4.762325317972104
924.1633386,0.3367390488550703
925.8456109,-2.954393976771409
927.5317378,1.1213101835771502
929.22171,-1.1784167152442042
930.9155179,-0.1959820145603092
932.6131521,2.623685655736
934.3146028,3.508808964553748
936.0198606,-1.4092467872262948
937.7289155,3.357051064217856
939.4417579,-0.1433549982058296
941.1583779,3.4924909085186995
942.8787656,1.7552833197681612
944.6029109,1.0438529115219704
946.3308041,1.61116527028671
948.0624349,-1.6406580822307812
949.7977933,0.0303627546615611
951.5368692,1.0054468414848572
953.2796523,2.8825024563870287
955.0261327,2.038386217692225
956.7762999,-0.9961022088620024
958.5301437,0.3059147389799099
960.2876539,-0.9832630871108788
962.0488201,-2.0465408019560334
963.813632,-3.145091001415989
965.5820793,-1.6500203217407448
967.3541517,-3.931627784697047
969.1298386,2.105018682888055
970.9091298,1.7033514814049606
972.6920149,-2.722886210281976
974.4784835,-0.4818640940231268
976.2685251,-0.3512474515183997
978.0621293,-4.374340339645181
979.8592859,-0.1795326001418748
981.6599843,1.1326973448076738
983.4642142,-1.3699780389486216
985.2719651,1.4194941617328218
987.0832269,-2.0340671427426784
988.897989,0.5951808195257647
990.7162412,0.8251880571268331
992.5379731,0.5697323218961414
994.3631745,-0.1305353913543167
996.191835,-2.5234487474089846
998.0239445,-1.4046168974828863
999.8594926,-1.721517714247634
1001.698469,0.1940873766338494
1003.540864,-2.4828015120146354
1005.386668,-0.2560380296789093
1007.235869,-1.0135027700346122
1009.088458,-1.3882057339090028
1010.944426,-1.4595044843212577
1012.803762,2.695458672122457
1014.666456,-1.7623914860927488
1016.532498,3.563393467847685
1018.401878,0.1326549887647255
1020.274588,2.036567084308109
1022.150616,-4.73185969603898
1024.029953,-1.7019446622146523
1025.912591,-1.3569396311604591
1027.798518,-1.7565954216705633
1029.687726,-0.98573078831702
1031.580205,0.4841937252135517
1033.475945,0.8186167813122637
1035.3749380000002,2.5893260434548018
1037.277175,1.538102537464364
1039.182645,-2.0127188922791954
1041.09134,2.6250894347966467
1043.003251,0.2137404881779373
1044.918368,-0.0573575810121391
1046.836683,0.7728066703273068
1048.758188,3.079024708981095
1050.682872,1.7863592040068756
1052.610728,-0.9875552316154448
1054.541747,0.8450681541709223
1056.4759210000002,0.5606905164531844
1058.41324,2.214747155831732
