wave,flux
306.2504509,321.82948892309463
306.5604242,448.36968137361794
306.871524,607.1180932698992
307.18375710000004,777.3602772422073
307.4971302,971.1595181444112
307.8116501,1189.5625123567204
308.1273236,1250.0587182485128
308.4441577,1319.7811092900415
308.7621594,1398.118667811769
309.0813356,1495.1804746116445
309.4016935,1594.0476454571751
309.7232403,1720.1151202287351
310.04598300000004,1860.517257442668
310.369929,2010.029864984742
310.6950856,2184.2206846267213
311.0214601,2362.1094808841062
311.34906010000003,2539.944682834559
311.6778931,2725.576372157226
312.0079665,2908.82606537
312.33928810000003,3069.8192622614056
312.6718655,3237.951006220849
313.00570639999995,3397.9403223833465
313.3408189,3550.589241522869
313.6772106,3712.027060793454
314.0148896,3880.535413910404
314.3538639,4059.468331802969
314.6941415,4254.647636770794
315.0357308,4458.686950430636
315.37863980000003,4683.531017812251
315.7228769,4925.353980853861
316.0684504,5181.752748994451
316.4153688,5458.409958312051
316.76364069999994,5744.79466970499
317.1132746,6062.708471694234
317.4642791,6394.580851590426
317.8166631,6745.277578464948
318.1704352,7106.119726367868
318.5256045,7476.7111063878365
318.8821799,7864.21962177513
319.2401704,8249.188920320696
319.5995851,8631.381131820086
319.96043330000003,9004.566760199621
320.3227243,9370.672962847671
320.6864673,9737.206488062471
321.0516719,10080.310910551536
321.4183476,10438.654973200628
321.786504,10769.519128529058
322.1561508,11114.428165319285
322.5272977,11452.33150672194
322.8999548,11791.68934770624
323.2741319,12172.706907512693
323.649839,12557.214451178766
324.0270864,12983.090234721158
324.40588419999995,13437.779162175908
324.7862428,13927.397384548118
325.16817260000005,14459.43178509203
325.5516841,15046.949084176991
325.9367879,15706.07659864074
326.32349480000005,16447.690357887892
326.7118154,17245.042003400133
327.1017607,18195.552910174218
327.4933418,19275.9937658878
327.88656960000003,20554.35293787424
328.2814555,22121.196619439743
328.6780106,23949.173446293164
329.0762465,26203.83757281077
329.47617460000004,28875.704388457
329.8778065,32127.094631825843
330.281154,35973.061821766125
330.6862289,40538.72313426135
331.0930432,45780.22056150191
331.5016088,51829.93235374608
331.911938,58581.024938709656
332.32404310000004,66126.44623657568
332.7379364,74311.097549345
333.1536305,83070.21361375674
333.571138,92259.22362427236
333.9904716,101694.95073780158
334.4116443,111237.70652095805
334.834669,120718.40286329028
335.2595588,129847.60605786144
335.686327,138494.65555709292
336.114987,146461.86417777857
336.5455522,153636.51459376427
336.9780363,159900.98373941492
337.41245310000005,165291.83115746896
337.8488164,169822.18306561714
338.28714019999995,173622.19812137805
338.7274388,176873.2423041811
339.1697264,179803.84739014696
339.6140175,182636.0651143333
340.06032660000005,185757.73019685247
340.5086685,189277.4398631416
340.959058,193467.16962427192
341.4115102,198507.5574839253
341.8660403,204429.407236154
342.32266339999995,211476.2793519924
342.7813952,219572.5156334879
343.24225110000003,228816.0460819964
343.70524710000007,239410.5632341303
344.17039889999995,251490.06721156108
344.6377228,265379.53403779125
345.1072349,281190.76982754486
345.5789517,299179.6736913691
346.0528897,319363.3349396353
346.5290657,341641.23735537706
347.0074967,365862.6201282577
347.48819960000003,391310.0125219408
347.9711917,417332.29214324383
348.45649060000005,442999.0914567413
348.9441137,467199.0168171689
349.434079,489121.4645237625
349.9264043,507826.7038582396
350.4211078,522885.86557568616
350.9182079,533942.3040889875
351.4177232,541263.3486682968
351.9196722,545351.12236802
352.42407410000004,546935.8091742537
352.9309478,547110.5665451513
353.4403127,546866.1574886687
353.95218839999995,547180.5776558606
354.4665945,548979.0698412758
354.983551,552985.0372629118
355.503078,559654.7630230403
356.025196,569012.5298402443
356.5499253,581024.1638362915
357.077287,595257.9703073961
357.6073018,611259.044951379
358.1399912,628441.791601214
358.6753765,645937.591039855
359.2134795,662783.1929263184
359.754322,678348.6011217415
360.2979263,691654.7445761857
360.8443147,702117.2432327709
361.3935098,709194.9383893184
361.9455346,712629.7677624434
362.5004122,712175.1146283897
363.058166,708209.3148755033
363.61881960000005,700942.7164202388
364.1823969,691273.2778635111
364.7489221,679817.8690996324
365.3184196,667507.5358067618
365.8909141,655162.5479873087
366.4664305,643417.5180315453
367.0449943,632822.0814493572
367.6266307,623487.4169540517
368.2113658,615616.0468368086
368.7992255,608679.707366029
369.3902363,602312.6546456887
369.9844249,595773.4898214338
370.5818182,588578.3864547975
371.1824436,580010.0980978018
371.7863286000001,569908.3813103164
372.3935012,557997.6839483819
373.0039896,544782.799144464
373.6178223,530342.3501788593
374.2350283,515710.556033294
374.8556368,501606.9220529024
375.4796772,489271.3787250589
376.1071796,479349.1971170007
376.7381741,472848.66633729823
377.3726913,470346.2536536847
378.0107622,472042.9065749791
378.652418,478231.097303566
379.2976904,488819.1018326605
379.9466115,503555.33708664007
380.5992136,522253.3464467564
381.2555296,544707.115469884
381.9155926,570360.621138235
382.5794362,599079.7498944346
383.2470943,630733.1435482935
383.9186014,664880.4669482416
384.5939922,701322.8054749211
385.2733019,739599.8170977852
385.9565661,778975.693710853
386.6438209,819002.6392763766
387.3351027,858776.8028978633
388.0304484,897258.2079795747
388.7298955,933802.7925486274
389.4334817,967085.3778887832
390.1412452,996639.120887857
390.853225,1021380.2107113812
391.56946,1040979.7202089695
392.2899901,1054483.8416325585
393.0148555,1061806.8790065865
393.7440968,1063113.9235416136
394.4777551,1058468.8693524888
395.2158722,1049042.324980662
395.9584903,1035829.811470416
396.7056521,1020581.3931737496
397.457401,1004777.0224013968
398.2137806,990363.2364394016
398.9748353,978876.0692043762
399.7406101,971924.2361417912
400.5111505,969617.7813485672
401.2865024,972660.3942258672
402.0667126,980284.718041188
402.8518283,991651.3257933928
403.6418973,1005602.665491574
404.436968,1020640.2958040676
405.2370896,1035489.9719490056
406.0423117,1049102.7136178855
406.8526847,1060585.7217849316
407.66825960000006,1069663.3993014232
408.4890879,1075925.6917931957
409.3152221,1079539.3632071882
410.1467152,1080169.221405731
410.9836208,1077933.1222256692
411.8259934,1073055.3218604298
412.673888,1065391.4326080575
413.5273605,1055656.67812712
414.38646760000006,1044325.4145858864
415.2512664,1032785.4869491876
416.1218152,1022043.1797877213
416.9981727,1014114.6838135524
417.8803987,1010466.5819559894
418.7685535,1012502.88886805
419.6626985,1021589.985470762
420.5628957,1038111.178508472
421.4692081,1061521.0924029432
422.3816994,1090940.1898848685
423.3004343,1124869.6199097468
424.2254783,1161083.4938931605
425.1568978,1197515.5391562912
426.0947602,1231962.132379318
427.0391337,1262840.2576871892
427.9900874,1288182.316978933
428.9476917,1308010.599175885
429.9120175,1321679.3816482509
430.8831369,1329941.522879802
431.8611232,1333168.4168781294
432.8460504,1333053.523542788
433.8379937,1331016.6765107787
434.8370293,1328558.2726701917
435.8432345,1327500.930563893
436.8566878,1329291.7506233335
437.8774686,1335645.620772054
438.9056575,1348016.6406583409
439.9413364,1368158.2038073046
440.9845882,1397001.0019543774
442.035497,1435747.3302131903
443.0941482,1485152.209412951
444.1606283,1546151.9234157102
445.23502520000005,1619885.4932987662
446.317428,1707430.1912189838
447.407927,1809175.098739564
448.5066141,1927988.508793901
449.6135822,2065488.1475586465
450.7289258,2223657.5444920417
451.85274060000006,2404766.9997411203
452.9851239,2610679.748048211
454.1261744,2841875.9354017656
455.2759921,3096720.3054895583
456.4346788,3370083.0676379
457.6023374,3654420.470067963
458.7790727,3938827.4629079057
459.9649909,4212185.433910691
461.1601998,4461555.918368835
462.364809,4673997.448630675
463.5789295,4836921.880086935
464.8026741000001,4945133.52168355
466.0361575,4997158.856266099
467.2794956999999,4996912.87105619
468.5328070000001,4952066.615448036
469.7962111000001,4875322.779143205
471.0698299,4781245.916968644
472.3537868,4684801.129385401
473.6482074,4601978.413868836
474.9532192,4545029.815631919
476.2689517,4523220.567798514
477.5955362,4543212.082604919
478.93310639999993,4607454.965175456
480.2817979,4710474.522131805
481.6417484,4845597.001799531
483.01309800000007,5003327.487546532
484.3959889,5174755.697963331
485.7905654,5348820.030116389
487.1969743,5515616.517947312
488.6153648,5662740.8694073865
490.0458884,5782833.492202358
491.488699,5876193.42446704
492.943953,5945335.636021418
494.4118094,5992819.653471466
495.8924299,6022089.765657528
497.3859785,6037182.162162663
498.8926222,6041308.517256277
500.4125306,6041039.241595491
501.9458762,6041519.611808272
503.4928341,6041551.529921398
505.0535827,6041253.9155601775
506.628303,6041387.921332212
508.2171791999999,6041510.310307106
509.8203986,6041429.946901007
511.4381515,6041585.440103635
513.0706316000001,6041639.826352849
514.7180356,6041397.147592809
516.3805639,6041512.715624357
518.0584200000001,6041735.429027277
519.7518110000001,6041638.122018413
521.4609475999999,6041595.729137521
523.186044,6041574.821790192
524.927318,6041190.529090403
526.6849915,6041161.034471124
528.45929,6041636.188436423
530.2504428000001,6041209.706526245
532.0586836,6041708.894713667
533.8842498,6041168.456993463
535.7273833,6041216.9060095865
537.5883299,6041782.982542406
539.46734,6041519.882924256
541.3646685,6041330.332750983
543.2805745000001,6041235.96719522
545.2153222000001,6041222.142844328
547.1691801,6041462.671365897
549.1424218999999,6041349.016957015
551.1353259,6041532.474262238
553.1481756000001,6040932.45806451
555.1812597,6041668.03839613
557.2348721,6041224.352708385
559.3093121,6041376.527565967
561.4048845,6041413.435796238
563.5218996,6040988.213165613
565.6606737000001,6041435.276225265
567.8215287,6041531.114705387
570.0047927,6041085.18776336
572.2107997,6041487.265541538
574.4398902,6041432.178155326
576.692411,6041681.607440169
578.9687155,6041362.9293659385
581.2691637,6041616.232299917
583.5941226,6041489.129761396
585.943966,6041016.120958334
588.3190752,6041674.7156446325
590.7198384999999,6041662.055906243
593.1466518,6041514.18164936
595.5999188999999,6041952.959920548
598.0800512,6041071.817338184
600.5874682,6041204.881956013
603.1225977000001,6041173.74854257
605.6858758999999,6041314.096718755
608.2777476,6041390.712158708
610.8986664,6041502.66556792
613.549095,6041533.699273936
616.2295054,6041588.875866751
618.940379,6042041.547815091
621.6822068,6040538.02982069
624.4554901,6042721.549109192
627.2607402000001,6040987.797417715
630.0984786,6042080.681564783
632.9692378999999,6042155.787714983
635.8735614,6040399.806475839
638.8120038,6042588.391378702
641.7851312999999,6042793.28788399
644.7935217999999,6043251.591657982
647.8377654,6042234.333380262
650.9184646000001,6041268.616078381
654.0362346,6041117.402326064
657.1917038,6042023.902551242
660.3855139,6042838.998367828
663.6183202999999,6039623.92070539
666.8907926,6044838.321254637
670.2036149,6040744.295155576
673.557486,6041994.418112265
676.9531202000001,6039319.575525031
680.3912472999999,6039086.53626441
683.8726131,6044006.691058341
687.3979803,6039798.088043412
690.9681281000001,6044594.192789764
694.5838534,6041733.682935578
705.2443688999999,6041738.733177078
706.2810885,6041548.596795866
707.3212499,6041271.804002987
708.3648661000001,6041728.899340636
709.41195,6041584.068917628
710.4625143999999,6041240.915375478
711.5165721,6041437.214353087
712.5741357,6041658.888258887
713.6352181,6041853.817453749
714.6998317000001,6041671.885354993
715.7679891,6041130.504671548
716.8397027999999,6041436.080231153
717.9149852,6041318.773342314
718.9938487000001,6041110.558645267
720.0763055,6041722.756696959
721.162368,6041509.564044408
722.2520481,6041873.071762422
723.3453581,6041526.665576748
724.4423098,6041324.880358534
725.5429153,6041484.095598589
726.6471863,6041026.719533288
727.7551346,6041408.608434394
728.866772,6041784.03417271
729.9821099,6041725.843732835
731.1011599,6041513.788835146
732.2239335,6041210.168393136
733.3504419,6041645.331585477
734.4806963999999,6040885.036336835
735.6147081,6041689.546074187
736.7524882,6041305.1218696935
737.8940474,6041200.265325408
739.0393967,6041800.426085106
740.1885467999999,6041282.587589228
741.3415084,6041523.938211418
742.498292,6041349.3987891525
743.658908,6041682.543470183
744.8233667999999,6041026.177558086
745.9916785,6041609.620689474
747.1638532000001,6041236.894622227
748.3399009,6041267.287163357
749.5198315,6040997.277771267
750.7036546,6041894.717999257
751.89138,6041019.960727064
753.0830171,6041294.731642417
754.2785752999999,6041196.609560045
755.4780638,6040896.320479778
756.6814917,6041697.931365322
757.8888678999999,6041314.892698192
759.1002014999999,6041291.76002809
760.3155009,6041289.917748722
761.5347749,6036780.657062923
762.7580318,6023964.05980649
763.98528,5997712.657800937
765.2165276000001,5955951.308974412
766.4517825,5895347.040713949
767.6910527000001,5813382.031961722
768.9343458999999,5705559.672415217
770.1816697,5569875.59638177
771.4330313999999,5410181.127787641
772.6884382999999,5231843.763107789
773.9478975,5039085.463048446
775.211416,4832980.524139859
776.4790005,4616379.994471286
777.7506578,4391418.445752092
779.0263942,4162201.13336868
780.3062162,3932472.826492075
781.5901297,3704004.682353642
782.8781409,3478031.841765556
784.1702554999999,3257889.636634962
785.4664793,3047456.7490209923
786.7668176,2849790.805837604
788.0712758,2667880.449633716
789.3798591,2503522.8423466543
790.6925722999999,2356380.8811159288
792.0094204,2226130.71682236
793.3304079,2110622.710441304
794.6555392000001,2007214.1856742024
795.9848187000001,1913150.76315576
797.3182504,1825846.586434492
798.6558382999999,1742977.564362195
799.9975861,1663641.2775876955
801.3434973,1585741.904297726
802.6935752999999,1510419.1496726065
804.0478232999999,1437564.072187647
805.4062443,1367628.7720231244
806.7688411,1301695.3845820487
808.1356164,1240120.060906805
809.5065726,1183657.899297768
810.881712,1132334.1536698125
812.2610367000001,1085876.9113334347
813.6445485,1043587.3167137622
815.0322493,1004697.6743276272
816.4241404,968409.006576656
817.8202233,933318.2401410504
819.2204991,899116.5702209264
820.6249687999999,864897.1098753907
822.0336331,830232.955694159
823.4464925999999,794968.3611602952
824.8635477000001,759564.773113662
826.2847987,724118.5188902372
827.7102456,689123.515936417
829.1398882,655092.694732433
830.5737261,622111.7128145909
832.0117589,590517.13129382
833.4539857000001,560695.1867076791
834.9004057999999,532372.5912337779
836.3510179,505560.8878744025
837.8058209,479851.1261874744
839.2648132999999,455164.5877465536
840.7279934000001,431060.8606945975
842.1953594,407389.4142823333
843.6669092,384107.6578465593
845.1426408,361062.00322486064
846.6225517000001,338163.1508206549
848.1066392999999,315524.3289994862
849.5949009999999,293031.8247583148
851.0873337999999,271018.12152723875
852.5839347000001,249467.1316309073
854.0847002999999,228473.33789758905
855.5896273,208273.924826504
857.0987119999999,188741.7572744613
858.6119507000001,170146.76381401625
860.1293393999999,152510.40892807208
861.650874,136164.089540954
863.1765502000001,120960.25721488072
864.7063635,107014.17990464352
866.2403094,94338.80468785512
867.778383,82941.22315808732
869.3205793999999,72875.05904464095
870.8668935000001,63972.42718596479
872.4173199999999,56125.52867552271
873.9718536,49276.025414478776
875.5304886,43293.759152407234
877.0932193,38158.80559640124
878.6600399,33686.803771548395
880.2309443,29739.35129457298
881.8059264000001,26120.05528725268
883.3849798,22804.046260033087
884.9680981,19749.757825731333
886.5552747000002,16862.142316048292
888.1465029,14146.787363960331
889.7417757000001,11569.155556185571
891.3410862,9090.57184702946
892.9444273,6825.763449366958
894.5517916000001,4938.185893382236
896.1631719000001,3421.853088742012
897.7785605,2209.524925941165
899.3979498,1303.306992236457
901.0213321,660.9184241964713
902.6486995,256.61736409407644
904.280044,73.1600683633893
905.9153575,34.8168960149347
907.5546319,13.697765457150387
909.1978586,4.806466342541204
910.8450295,-3.375389010866936
912.4961358,-1.945838213316483
914.1511691,2.143651113792037
915.8101205,-5.588724546315235
917.4729813,-0.0847166052511163
919.1397426,-3.16334733574574
920.8103953,0.4415389257802514
922.4849303,4.762325317972104
924.1633386,0.3367390488550703
925.8456109,-2.954393976771409
927.5317378,1.1213101835771502
929.22171,-1.1784167152442042
930.9155179,-0.1959820145603092
932.6131521,2.623685655736
934.3146028,3.508808964553748
936.0198606,-1.4092467872262948
937.7289155,3.357051064217856
939.4417579,-0.1433549982058296
941.1583779,3.4924909085186995
942.8787656,1.7552833197681612
944.6029109,1.0438529115219704
946.3308041,1.61116527028671
948.0624349,-1.6406580822307812
949.7977933,0.0303627546615611
951.5368692,1.0054468414848572
953.2796523,2.8825024563870287
955.0261327,2.038386217692225
956.7762999,-0.9961022088620024
958.5301437,0.3059147389799099
960.2876539,-0.9832630871108788
962.0488201,-2.0465408019560334
963.813632,-3.145091001415989
965.5820793,-1.6500203217407448
967.3541517,-3.931627784697047
969.1298386,2.105018682888055
970.9091298,1.7033514814049606
972.6920149,-2.722886210281976
974.4784835,-0.4818640940231268
976.2685251,-0.3512474515183997
978.0621293,-4.374340339645181
979.8592859,-0.1795326001418748
981.6599843,1.1326973448076738
983.4642142,-1.3699780389486216
985.2719651,1.4194941617328218
987.0832269,-2.0340671427426784
988.897989,0.5951808195257647
990.7162412,0.8251880571268331
992.5379731,0.5697323218961414
994.3631745,-0.1305353913543167
996.191835,-2.5234487474089846
998.0239445,-1.4046168974828863
999.8594926,-1.721517714247634
1001.698469,0.1940873766338494
1003.540864,-2.4828015120146354
1005.386668,-0.2560380296789093
1007.235869,-1.0135027700346122
1009.088458,-1.3882057339090028
1010.944426,-1.4595044843212577
1012.803762,2.695458672122457
1014.666456,-1.7623914860927488
1016.532498,3.563393467847685
1018.401878,0.1326549887647255
1020.274588,2.036567084308109
1022.150616,-4.73185969603898
1024.029953,-1.7019446622146523
1025.912591,-1.3569396311604591
1027.798518,-1.7565954216705633
1029.687726,-0.98573078831702
1031.580205,0.4841937252135517
1033.475945,0.8186167813122637
1035.3749380000002,2.5893260434548018
1037.277175,1.538102537464364
1039.182645,-2.0127188922791954
1041.09134,2.6250894347966467
1043.003251,0.2137404881779373
1044.918368,-0.0573575810121391
1046.836683,0.7728066703273068
1048.758188,3.079024708981095
1050.682872,1.7863592040068756
1052.610728,-0.9875552316154448
1054.541747,0.8450681541709223
1056.4759210000002,0.5606905164531844
1058.41324,2.214747155831732
1060.353697,-0.1533507103623259
1062.297282,-3.1936625878301363
1064.243989,-6.004355355014276
1066.193809,1.6975392031795646
1068.146734,-1.8391697537208151
1070.102755,-1.0996296138543131
1072.061865,0.8926713113443641
1074.024056,2.2107648134886464
1075.989321,-2.4650492132498067
1077.957651,0.1139664012951578
1079.92904,-0.1832930190834896
1081.9034800000002,-0.0468904277091718
1083.880963,0.5263171524006843
1085.861482,-1.851421895764164
1087.8450300000002,-6.139452158509519
1089.8316,1.0452978241809137
1091.821185,0.6195830011674871
1093.8137789999998,-1.4805380120059908
1095.809373,1.2906043979323651
1097.807962,2.1492273529488672
1099.809539,-3.3220401098019128
1101.814098,-1.537096291258454
1103.821631,0.0079066317020363
1105.832134,-2.1531000536644527
1107.845599,-0.7926893699795251
1109.86202,2.503761549973071
1111.881392,-0.6177094560758585
1113.903708,0.3290869249148223
1115.928963,0.5084663976066376
1117.95715,-3.21678856285876
1119.988266,8.169563144433084
