wave,flux
306.2504509,750.2695448049361
306.5604242,1061.2879605982575
306.871524,1428.2209178903934
307.18375710000004,1807.627616005415
307.4971302,2205.6739653254026
307.8116501,2623.563682323017
308.1273236,2726.2538048342285
308.4441577,2828.206762213912
308.7621594,2941.858510786913
309.0813356,3069.8024044554195
309.4016935,3203.8728804106927
309.7232403,3356.171256804339
310.04598300000004,3546.5079509440807
310.369929,3753.020085199665
310.6950856,3981.7555761683393
311.0214601,4237.183636292823
311.34906010000003,4534.791162400856
311.6778931,4842.647650306468
312.0079665,5187.125690724498
312.33928810000003,5536.296736478885
312.6718655,5917.089455346682
313.00570639999995,6299.416782857561
313.3408189,6680.577174585755
313.6772106,7054.523286486381
314.0148896,7439.557172751273
314.3538639,7833.87771497433
314.6941415,8216.902653323003
315.0357308,8601.722397515858
315.37863980000003,9010.884447243036
315.7228769,9429.531566821404
316.0684504,9873.483668841993
316.4153688,10352.098715871256
316.76364069999994,10824.622799694534
317.1132746,11339.260579626822
317.4642791,11865.32952185262
317.8166631,12412.786994790276
318.1704352,12974.9214875603
318.5256045,13548.07799582715
318.8821799,14114.934625241058
319.2401704,14719.276263052412
319.5995851,15329.04270000891
319.96043330000003,15979.322233015257
320.3227243,16625.873586282894
320.6864673,17294.69308390807
321.0516719,17992.295070593882
321.4183476,18687.70938288238
321.786504,19399.690135887708
322.1561508,20148.3691599508
322.5272977,20923.60689316038
322.8999548,21664.988848395988
323.2741319,22535.69785075145
323.649839,23363.773833820705
324.0270864,24293.342123177717
324.40588419999995,25242.25693682444
324.7862428,26368.96866458364
325.16817260000005,27582.21208050692
325.5516841,29003.375435795697
325.9367879,30681.0969255736
326.32349480000005,32593.28096330512
326.7118154,34874.90008501085
327.1017607,37586.21233611283
327.4933418,40704.43406036181
327.88656960000003,44419.73951248172
328.2814555,48672.21844610594
328.6780106,53585.483996151415
329.0762465,59121.6668044288
329.47617460000004,65318.64150679409
329.8778065,72178.13804934728
330.281154,79658.55665662512
330.6862289,87775.23481539871
331.0930432,96575.49518171667
331.5016088,105831.81394535732
331.911938,115847.95308626204
332.32404310000004,126555.0752047545
332.7379364,138136.10582079343
333.1536305,150605.90394586447
333.571138,164201.58793914953
333.9904716,179123.35142914354
334.4116443,195437.20486072925
334.834669,213244.8206062315
335.2595588,232586.85817833728
335.686327,253349.7854019852
336.114987,275201.3967060072
336.5455522,298117.6522050075
336.9780363,321371.2267860637
337.41245310000005,344659.60199719697
337.8488164,367265.4988084117
338.28714019999995,388836.1158484312
338.7274388,408779.8386232532
339.1697264,426600.3849656583
339.6140175,441949.8365533129
340.06032660000005,454580.3763493373
340.5086685,464419.18066609255
340.959058,471360.03313556034
341.4115102,475494.6386824654
341.8660403,477243.30324896256
342.32266339999995,476892.16867653537
342.7813952,474941.07288261177
343.24225110000003,472304.4447502786
343.70524710000007,469811.65761268616
344.17039889999995,468390.4873180452
344.6377228,469329.1868233366
345.1072349,473582.8552801836
345.5789517,482375.469048369
346.0528897,496475.8089746578
346.5290657,516892.9267058671
347.0074967,543742.6615705236
347.48819960000003,577212.1502168563
347.9711917,616925.796160824
348.45649060000005,662042.3940209392
348.9441137,711583.7918605006
349.434079,763891.8852735795
349.9264043,817319.3319972963
350.4211078,870055.293927439
350.9182079,920273.454028892
351.4177232,966471.9332508494
351.9196722,1007083.862126552
352.42407410000004,1041452.200719108
352.9309478,1069074.053019445
353.4403127,1090009.272877535
353.95218839999995,1104446.05331995
354.4665945,1113430.684102429
354.983551,1117752.7990397324
355.503078,1118642.0734808245
356.025196,1117325.7306548385
356.5499253,1114455.8052754414
357.077287,1110961.2162973802
357.6073018,1107305.147603523
358.1399912,1103543.2858359923
358.6753765,1099715.649753885
359.2134795,1096244.416256314
359.754322,1092487.7485895453
360.2979263,1088966.9238036994
360.8443147,1085626.2484535424
361.3935098,1082949.15325508
361.9455346,1081231.3007837806
362.5004122,1081040.594090536
363.058166,1083056.494870935
363.61881960000005,1087683.1984303778
364.1823969,1095320.9982642496
364.7489221,1106027.7168188354
365.3184196,1119949.8751376662
365.8909141,1137243.4439662348
366.4664305,1157344.48672562
367.0449943,1180161.833241479
367.6266307,1205504.006137963
368.2113658,1232497.7562603478
368.7992255,1261365.2949880443
369.3902363,1291315.8744404756
369.9844249,1322256.3718898343
370.5818182,1353252.508067083
371.1824436,1384672.1336384148
371.7863286000001,1415950.71428905
372.3935012,1446906.8915584618
373.0039896,1477657.2297442628
373.6178223,1508951.511457656
374.2350283,1540713.5690638004
374.8556368,1573802.6256635715
375.4796772,1609591.9971304089
376.1071796,1647849.9856982422
376.7381741,1689569.3751295777
377.3726913,1734755.5420800757
378.0107622,1783594.0750790888
378.652418,1835326.465870816
379.2976904,1889535.9422438312
379.9466115,1944868.338309084
380.5992136,2000266.1721365976
381.2555296,2054546.317680521
381.9155926,2107089.3312648144
382.5794362,2156214.5684256773
383.2470943,2201993.543328027
383.9186014,2244310.668335445
384.5939922,2283503.818711176
385.2733019,2319877.9189537587
385.9565661,2355098.704043517
386.6438209,2390208.6809629467
387.3351027,2428223.076206682
388.0304484,2471967.635412784
388.7298955,2525187.4038120126
389.4334817,2590207.415097303
390.1412452,2674631.086806803
390.853225,2782005.186930972
391.56946,2915864.347207692
392.2899901,3077932.6031108988
393.0148555,3269343.4764833017
393.7440968,3488207.0117254937
394.4777551,3733626.795357747
395.2158722,4001579.582222028
395.9584903,4279157.13987974
396.7056521,4557213.89415845
397.457401,4826961.370880154
398.2137806,5080347.076043778
398.9748353,5310132.790601038
399.7406101,5510555.469141523
400.5111505,5674743.120967132
401.2865024,5799291.890430323
402.0667126,5892839.396761337
402.8518283,5957466.577819604
403.6418973,6000307.919956659
404.436968,6025315.756694118
405.2370896,6037742.065487252
406.0423117,6041243.8611495085
406.8526847,6041422.226606943
407.66825960000006,6041549.95776563
408.4890879,6041306.237796491
409.3152221,6041327.5649907375
410.1467152,6041224.185623762
410.9836208,6041695.2316350425
411.8259934,6041665.901589394
412.673888,6041609.89602454
413.5273605,6041274.972736779
414.38646760000006,6041585.357190616
415.2512664,6041437.473860627
416.1218152,6041655.899045638
416.9981727,6040909.714915523
417.8803987,6041272.968934514
418.7685535,6041284.7473905785
419.6626985,6041478.002259633
420.5628957,6041311.482501484
421.4692081,6041738.999071599
422.3816994,6041352.559220624
423.3004343,6041680.709303329
424.2254783,6041569.301284203
425.1568978,6041000.950289807
426.0947602,6041776.377112225
427.0391337,6040938.463415094
427.9900874,6041083.538154735
428.9476917,6040940.091396797
429.9120175,6041781.680229782
430.8831369,6041748.502239325
431.8611232,6041225.2912787525
432.8460504,6041497.524255871
433.8379937,6041410.645766325
434.8370293,6041765.533855728
435.8432345,6041777.774359864
436.8566878,6041168.790267848
437.8774686,6041218.47152197
438.9056575,6041567.702129307
439.9413364,6041478.919122272
440.9845882,6041024.605365236
442.035497,6041299.916837196
443.0941482,6041570.163037293
444.1606283,6041451.414418898
445.23502520000005,6041813.698096387
446.317428,6041635.725062849
447.407927,6041143.855293716
448.5066141,6040847.6461953735
449.6135822,6041595.522851165
450.7289258,6041119.486621208
451.85274060000006,6041634.064538881
452.9851239,6041302.632142869
454.1261744,6041647.506147994
455.2759921,6041216.289873263
456.4346788,6041566.816250109
457.6023374,6041277.14523824
458.7790727,6041629.452950205
459.9649909,6041518.040167808
461.1601998,6041487.078810566
462.364809,6041299.293572348
463.5789295,6041765.799810075
464.8026741000001,6041392.518927443
466.0361575,6041761.48388122
467.2794956999999,6041125.25806851
468.5328070000001,6041388.71813887
469.7962111000001,6041531.837744785
471.0698299,6041589.258890859
472.3537868,6041463.659822373
473.6482074,6041941.048992127
474.9532192,6041449.2959049465
476.2689517,6040874.291218012
477.5955362,6041035.047049394
478.93310639999993,6041509.309005142
480.2817979,6041137.599874078
481.6417484,6041701.8787870975
483.01309800000007,6041549.613032523
484.3959889,6040986.320254127
485.7905654,6041149.06035744
487.1969743,6041231.761322173
488.6153648,6042038.231932304
490.0458884,6041038.789965058
491.488699,6041062.321330292
492.943953,6041603.913809617
494.4118094,6041566.099388955
495.8924299,6041624.099836029
497.3859785,6041613.670251657
498.8926222,6042130.516406042
500.4125306,6041493.312394382
501.9458762,6041387.185955658
503.4928341,6041570.869822172
505.0535827,6041521.643360005
506.628303,6041283.040440535
508.2171791999999,6041685.330557493
509.8203986,6041390.251248181
511.4381515,6041170.091884187
513.0706316000001,6041633.823822463
514.7180356,6041493.402658463
516.3805639,6041077.473012652
518.0584200000001,6041453.184881495
519.7518110000001,6041296.427273268
521.4609475999999,6041405.567453774
523.186044,6041497.572627583
524.927318,6041369.550567622
526.6849915,6041532.1231782185
528.45929,6041490.421750471
530.2504428000001,6041615.75736023
532.0586836,6041439.887753579
533.8842498,6041343.933351481
535.7273833,6041284.203450059
537.5883299,6041285.707587105
539.46734,6041132.789443544
541.3646685,6041859.8931935765
543.2805745000001,6041241.089659438
545.2153222000001,6041357.247786952
547.1691801,6041258.491091824
549.1424218999999,6041214.695842817
551.1353259,6041762.256075469
553.1481756000001,6041454.8929550415
555.1812597,6041431.867732933
557.2348721,6041469.997551319
559.3093121,6041351.958180891
561.4048845,6041428.112143539
563.5218996,6041666.58913286
565.6606737000001,6041165.640025197
567.8215287,6041094.671845012
570.0047927,6041264.619456386
572.2107997,6040960.868899925
574.4398902,6041378.05800985
576.692411,6041465.493632526
578.9687155,6041532.560755016
581.2691637,6041313.341046854
583.5941226,6041103.1623252565
585.943966,6041614.160002101
588.3190752,6041289.228673972
590.7198384999999,6041308.01235294
593.1466518,6041597.718187288
595.5999188999999,6041443.580003679
598.0800512,6041392.197854958
600.5874682,6041406.05250641
603.1225977000001,6041654.346849088
605.6858758999999,6041153.590303065
608.2777476,6041406.566229115
610.8986664,6041255.9192748265
613.549095,6041259.983639109
616.2295054,6041637.388046435
618.940379,6041076.47743005
621.6822068,6041116.036419991
624.4554901,6042018.152995102
627.2607402000001,6040753.690623688
630.0984786,6040555.461177628
632.9692378999999,6040140.548700755
635.8735614,6043083.666512056
638.8120038,6040373.683391186
641.7851312999999,6041007.91385189
644.7935217999999,6040971.898976879
647.8377654,6041777.9216778
650.9184646000001,6045723.651612549
654.0362346,6039945.493055098
655.7463047,6041098.4605098935
656.6225636,6041247.998199501
657.1917038,6041090.04555396
657.501561,6041213.102491157
658.3833105,6041675.173506688
659.2678255,6041354.862794315
660.1551197000001,6041644.441429223
661.0452068,6041939.220913758
661.9381002,6041391.46357243
662.8338137000001,6041566.783747729
663.7323607999999,6041506.331844827
664.6337553,6041395.154352518
665.5380107000001,6041174.928814688
666.4451407,6041789.567108886
667.355159,6041768.990847449
668.2680793,6041025.600701578
669.1839152000001,6041878.621230503
670.1026805,6041536.203329182
671.0243889,6041817.049782247
671.949054,6041288.980459927
672.8766895,6041271.116313018
673.8073092,6041228.570076198
674.7409267,6041021.87285016
675.6775557999999,6041509.762488304
676.6172101,6041406.773123708
677.5599033,6041372.668337625
678.5056492000001,6041317.116322317
679.4544612999999,6041289.512202607
680.4063535,6041134.786884902
681.3613392999999,6041533.216924714
682.3194324,6041266.774412323
683.2806465,6041136.6792547135
684.2449952000001,6041656.735559247
685.2124921,6041453.935218197
686.1831509,6041477.807051958
687.1569850999999,6041447.407197123
688.1340083,6040951.0301357685
689.1142341,6041551.977994118
690.097676,6041295.175980351
691.0843474999999,6041496.867909148
692.0742622,6041330.458684293
693.0674334,6041360.913656178
694.0638748,6041843.168072684
695.0635996,6041188.541090461
696.0666212,6041507.856637272
697.0729531000001,6041130.160638803
698.0826086,6041226.637563645
699.0956008999999,6041517.02129734
700.1119432999999,6041433.962947777
701.1316491,6041447.719601933
702.1547314,6041815.003225118
703.1812034,6040981.717873668
704.2110782000001,6040967.6351438975
705.2443688999999,6041738.733177078
706.2810885,6041548.596795866
707.3212499,6041271.804002987
708.3648661000001,6041728.899340636
709.41195,6041584.068917628
710.4625143999999,6041240.915375478
711.5165721,6041437.214353087
712.5741357,6041658.888258887
713.6352181,6041853.817453749
714.6998317000001,6041671.885354993
715.7679891,6041130.504671548
716.8397027999999,6041436.080231153
717.9149852,6041318.773342314
718.9938487000001,6041110.558645267
720.0763055,6041722.756696959
721.162368,6041509.564044408
722.2520481,6041873.071762422
723.3453581,6041526.665576748
724.4423098,6041324.880358534
725.5429153,6041484.095598589
726.6471863,6041026.719533288
727.7551346,6041408.608434394
728.866772,6041784.03417271
729.9821099,6041725.843732835
731.1011599,6041513.788835146
732.2239335,6041210.168393136
733.3504419,6041645.331585477
734.4806963999999,6040885.036336835
735.6147081,6041689.546074187
736.7524882,6041305.1218696935
737.8940474,6041200.265325408
739.0393967,6041800.426085106
740.1885467999999,6041282.587589228
741.3415084,6041523.938211418
742.498292,6041349.3987891525
743.658908,6041682.543470183
744.8233667999999,6041026.177558086
745.9916785,6041609.620689474
747.1638532000001,6041236.894622227
748.3399009,6041267.287163357
749.5198315,6040997.277771267
750.7036546,6041894.717999257
751.89138,6041019.960727064
753.0830171,6041294.731642417
754.2785752999999,6041196.609560045
755.4780638,6040896.320479778
756.6814917,6041697.931365322
757.8888678999999,6041314.892698192
759.1002014999999,6041291.76002809
760.3155009,6041289.917748722
761.5347749,6036780.657062923
762.7580318,6023964.05980649
763.98528,5997712.657800937
765.2165276000001,5955951.308974412
766.4517825,5895347.040713949
767.6910527000001,5813382.031961722
768.9343458999999,5705559.672415217
770.1816697,5569875.59638177
771.4330313999999,5410181.127787641
772.6884382999999,5231843.763107789
773.9478975,5039085.463048446
775.211416,4832980.524139859
776.4790005,4616379.994471286
777.7506578,4391418.445752092
779.0263942,4162201.13336868
780.3062162,3932472.826492075
781.5901297,3704004.682353642
782.8781409,3478031.841765556
784.1702554999999,3257889.636634962
785.4664793,3047456.7490209923
786.7668176,2849790.805837604
788.0712758,2667880.449633716
789.3798591,2503522.8423466543
790.6925722999999,2356380.8811159288
792.0094204,2226130.71682236
793.3304079,2110622.710441304
794.6555392000001,2007214.1856742024
795.9848187000001,1913150.76315576
797.3182504,1825846.586434492
798.6558382999999,1742977.564362195
799.9975861,1663641.2775876955
801.3434973,1585741.904297726
802.6935752999999,1510419.1496726065
804.0478232999999,1437564.072187647
805.4062443,1367628.7720231244
806.7688411,1301695.3845820487
808.1356164,1240120.060906805
809.5065726,1183657.899297768
810.881712,1132334.1536698125
812.2610367000001,1085876.9113334347
813.6445485,1043587.3167137622
815.0322493,1004697.6743276272
816.4241404,968409.006576656
817.8202233,933318.2401410504
819.2204991,899116.5702209264
820.6249687999999,864897.1098753907
822.0336331,830232.955694159
823.4464925999999,794968.3611602952
824.8635477000001,759564.773113662
826.2847987,724118.5188902372
827.7102456,689123.515936417
829.1398882,655092.694732433
830.5737261,622111.7128145909
832.0117589,590517.13129382
833.4539857000001,560695.1867076791
834.9004057999999,532372.5912337779
836.3510179,505560.8878744025
837.8058209,479851.1261874744
839.2648132999999,455164.5877465536
840.7279934000001,431060.8606945975
842.1953594,407389.4142823333
843.6669092,384107.6578465593
845.1426408,361062.00322486064
846.6225517000001,338163.1508206549
848.1066392999999,315524.3289994862
849.5949009999999,293031.8247583148
851.0873337999999,271018.12152723875
852.5839347000001,249467.1316309073
854.0847002999999,228473.33789758905
855.5896273,208273.924826504
857.0987119999999,188741.7572744613
858.6119507000001,170146.76381401625
860.1293393999999,152510.40892807208
861.650874,136164.089540954
863.1765502000001,120960.25721488072
864.7063635,107014.17990464352
866.2403094,94338.80468785512
867.778383,82941.22315808732
869.3205793999999,72875.05904464095
870.8668935000001,63972.42718596479
872.4173199999999,56125.52867552271
873.9718536,49276.025414478776
875.5304886,43293.759152407234
877.0932193,38158.80559640124
878.6600399,33686.803771548395
880.2309443,29739.35129457298
881.8059264000001,26120.05528725268
883.3849798,22804.046260033087
884.9680981,19749.757825731333
886.5552747000002,16862.142316048292
888.1465029,14146.787363960331
889.7417757000001,11569.155556185571
891.3410862,9090.57184702946
892.9444273,6825.763449366958
894.5517916000001,4938.185893382236
896.1631719000001,3421.853088742012
897.7785605,2209.524925941165
899.3979498,1303.306992236457
901.0213321,660.9184241964713
902.6486995,256.61736409407644
904.280044,73.1600683633893
905.9153575,34.8168960149347
907.5546319,13.697765457150387
909.1978586,4.806466342541204
910.8450295,-3.375389010866936
912.4961358,-1.945838213316483
914.1511691,2.143651113792037
915.8101205,-5.588724546315235
917.4729813,-0.0847166052511163
919.1397426,-3.16334733574574
920.8103953,0.4415389257802514
922.4849303,4.762325317972104
924.1633386,0.3367390488550703
925.8456109,-2.954393976771409
927.5317378,1.1213101835771502
929.22171,-1.1784167152442042
930.9155179,-0.1959820145603092
932.6131521,2.623685655736
934.3146028,3.508808964553748
936.0198606,-1.4092467872262948
937.7289155,3.357051064217856
939.4417579,-0.1433549982058296
941.1583779,3.4924909085186995
942.8787656,1.7552833197681612
944.6029109,1.0438529115219704
946.3308041,1.61116527028671
948.0624349,-1.6406580822307812
949.7977933,0.0303627546615611
951.5368692,1.0054468414848572
953.2796523,2.8825024563870287
955.0261327,2.038386217692225
956.7762999,-0.9961022088620024
958.5301437,0.3059147389799099
960.2876539,-0.9832630871108788
962.0488201,-2.0465408019560334
963.813632,-3.145091001415989
965.5820793,-1.6500203217407448
967.3541517,-3.931627784697047
969.1298386,2.105018682888055
970.9091298,1.7033514814049606
972.6920149,-2.722886210281976
974.4784835,-0.4818640940231268
976.2685251,-0.3512474515183997
978.0621293,-4.374340339645181
979.8592859,-0.1795326001418748
981.6599843,1.1326973448076738
983.4642142,-1.3699780389486216
985.2719651,1.4194941617328218
987.0832269,-2.0340671427426784
988.897989,0.5951808195257647
990.7162412,0.8251880571268331
992.5379731,0.5697323218961414
994.3631745,-0.1305353913543167
996.191835,-2.5234487474089846
998.0239445,-1.4046168974828863
999.8594926,-1.721517714247634
1001.698469,0.1940873766338494
1003.540864,-2.4828015120146354
1005.386668,-0.2560380296789093
1007.235869,-1.0135027700346122
1009.088458,-1.3882057339090028
1010.944426,-1.4595044843212577
1012.803762,2.695458672122457
1014.666456,-1.7623914860927488
1016.532498,3.563393467847685
1018.401878,0.1326549887647255
1020.274588,2.036567084308109
1022.150616,-4.73185969603898
1024.029953,-1.7019446622146523
1025.912591,-1.3569396311604591
1027.798518,-1.7565954216705633
1029.687726,-0.98573078831702
1031.580205,0.4841937252135517
1033.475945,0.8186167813122637
1035.3749380000002,2.5893260434548018
1037.277175,1.538102537464364
1039.182645,-2.0127188922791954
