wave,flux
306.2504509,659.4037820301063
306.5604242,943.8239468168288
306.871524,1269.0315739227146
307.18375710000004,1622.5125419009353
307.4971302,2034.0384513351348
307.8116501,2494.815034857679
308.1273236,2664.1413923848186
308.4441577,2831.3651618374997
308.7621594,2995.10255001409
309.0813356,3174.886311081003
309.4016935,3365.2233631367403
309.7232403,3578.155630989304
310.04598300000004,3805.525440796255
310.369929,4051.103608335433
310.6950856,4312.592690012595
311.0214601,4599.990908820426
311.34906010000003,4922.672598674117
311.6778931,5268.796774624864
312.0079665,5618.914392533579
312.33928810000003,5964.516393411634
312.6718655,6323.381082051689
313.00570639999995,6683.212345441996
313.3408189,7051.092706900489
313.6772106,7423.140929556895
314.0148896,7801.522107336274
314.3538639,8179.569939724201
314.6941415,8587.588005892254
315.0357308,9019.156882640307
315.37863980000003,9463.738065455693
315.7228769,9942.607859627837
316.0684504,10441.6157866332
316.4153688,10979.647997919208
316.76364069999994,11517.944163857248
317.1132746,12068.217763454017
317.4642791,12622.010638649846
317.8166631,13193.767932671426
318.1704352,13750.994020284106
318.5256045,14299.037871695604
318.8821799,14846.59327769412
319.2401704,15408.776647816368
319.5995851,15976.066450460828
319.96043330000003,16540.641009836425
320.3227243,17134.868721585804
320.6864673,17779.135554792174
321.0516719,18397.95372794928
321.4183476,19096.17346846787
321.786504,19801.246104874477
322.1561508,20570.169543427568
322.5272977,21396.165103370327
322.8999548,22277.62118721072
323.2741319,23268.531750728434
323.649839,24340.79444297532
324.0270864,25647.43562053255
324.40588419999995,27039.21660175493
324.7862428,28777.712965863662
325.16817260000005,30801.947428832013
325.5516841,33243.28743056388
325.9367879,36150.60694715033
326.32349480000005,39587.367599506775
326.7118154,43666.08205125199
327.1017607,48313.39117916593
327.4933418,53591.410343186544
327.88656960000003,59585.7487283068
328.2814555,66162.3972406714
328.6780106,73245.85693384218
329.0762465,80759.88470780247
329.47617460000004,88793.15856016318
329.8778065,97097.00941883057
330.281154,105753.44834711024
330.6862289,114701.58249496704
331.0930432,124047.26297256706
331.5016088,133653.55254539382
331.911938,143557.790965354
332.32404310000004,153703.46973109324
332.7379364,164093.3689264712
333.1536305,174496.79813914874
333.571138,184715.7742029809
333.9904716,194629.12695898328
334.4116443,204016.5401481881
334.834669,212663.93750130807
335.2595588,220614.5757618169
335.686327,227908.6155739993
336.114987,234608.90159652705
336.5455522,241016.3809194388
336.9780363,247455.8120331946
337.41245310000005,254252.66133842405
337.8488164,261907.52062092285
338.28714019999995,270557.3744877285
338.7274388,280736.4278220452
339.1697264,292390.2031174193
339.6140175,305854.5645431869
340.06032660000005,321127.33600598987
340.5086685,337958.95202040905
340.959058,356573.1233757045
341.4115102,376523.42448607134
341.8660403,397858.5575470957
342.32266339999995,419974.9233102088
342.7813952,443053.9992897154
343.24225110000003,466682.27077135537
343.70524710000007,490701.9491623493
344.17039889999995,515165.5995692808
344.6377228,540189.1798632897
345.1072349,565647.6258535867
345.5789517,592150.3012924965
346.0528897,619832.6851716676
346.5290657,649139.0133979443
347.0074967,680043.4613994289
347.48819960000003,712917.4838842319
347.9711917,747399.4569471594
348.45649060000005,783004.8627837859
348.9441137,819125.9319246236
349.434079,854775.6754720691
349.9264043,889144.1603573322
350.4211078,921096.3045787648
350.9182079,949663.086435376
351.4177232,974668.2880092976
351.9196722,995377.3652636616
352.42407410000004,1012493.695213561
352.9309478,1026370.4753577152
353.4403127,1037740.9958801628
353.95218839999995,1047654.917489642
354.4665945,1057058.8785712707
354.983551,1066560.603396881
355.503078,1076978.0326030252
356.025196,1088206.7792743358
356.5499253,1099823.034879897
357.077287,1111222.285496038
357.6073018,1121901.861229797
358.1399912,1130264.5530060593
358.6753765,1136185.8096393244
359.2134795,1138461.515961787
359.754322,1137212.2670934205
360.2979263,1132578.0250992435
360.8443147,1124828.6008858844
361.3935098,1114968.8015005973
361.9455346,1104018.843114575
362.5004122,1092844.359569803
363.058166,1082691.8411254594
363.61881960000005,1074445.1349390156
364.1823969,1068502.4340785104
364.7489221,1065206.2840839457
365.3184196,1064645.8944731764
365.8909141,1066734.0992110914
366.4664305,1070887.9487427904
367.0449943,1076809.4576884606
367.6266307,1083721.393166756
368.2113658,1091542.172449464
368.7992255,1099615.6341546287
369.3902363,1107760.129540529
369.9844249,1115591.1861119736
370.5818182,1123439.218898078
371.1824436,1131302.5942925431
371.7863286000001,1139106.7566412073
372.3935012,1147539.4382230698
373.0039896,1156755.1743935226
373.6178223,1167221.943169176
374.2350283,1178813.9350850726
374.8556368,1192052.6187514516
375.4796772,1206767.026996197
376.1071796,1222460.6181497718
376.7381741,1239234.91752637
377.3726913,1256434.2630847758
378.0107622,1273930.2352559003
378.652418,1291608.6929959962
379.2976904,1309355.8948638842
379.9466115,1327768.2678174365
380.5992136,1347397.096038742
381.2555296,1369114.2130712655
381.9155926,1394150.191771446
382.5794362,1422979.6438595415
383.2470943,1456933.6626499062
383.9186014,1496303.0283500825
384.5939922,1541289.427606681
385.2733019,1591436.4206999997
385.9565661,1645941.9448839056
386.6438209,1703472.8004388926
387.3351027,1763129.4273216163
388.0304484,1824007.217753421
388.7298955,1885619.0179228173
389.4334817,1946955.417201336
390.1412452,2010139.1377238908
390.853225,2075615.1205174043
391.56946,2145681.485594563
392.2899901,2221476.735723869
393.0148555,2305128.7487450577
393.7440968,2397720.100151445
394.4777551,2499615.5330305533
395.2158722,2610189.891646349
395.9584903,2726297.357918316
396.7056521,2844708.388607774
397.457401,2961437.991002759
398.2137806,3072235.276827148
398.9748353,3171911.928354028
399.7406101,3256914.590431502
400.5111505,3323928.212037537
401.2865024,3371585.257265173
402.0667126,3400837.917565684
402.8518283,3414427.2009625323
403.6418973,3417174.764565851
404.436968,3414871.603416785
405.2370896,3416743.2514144173
406.0423117,3430740.1572592435
406.8526847,3466559.022351965
407.66825960000006,3531976.1430515023
408.4890879,3634991.729006393
409.3152221,3781135.886642784
410.1467152,3967064.701890675
410.9836208,4187059.2492222087
411.8259934,4432841.587454722
412.673888,4692940.580082427
413.5273605,4954999.803038157
414.38646760000006,5205040.162256056
415.2512664,5431062.752142083
416.1218152,5618127.69667563
416.9981727,5765722.0743149575
417.8803987,5876722.309992768
418.7685535,5952742.376107887
419.6626985,6002569.294091862
420.5628957,6028655.677035701
421.4692081,6039521.660181057
422.3816994,6041131.91213109
423.3004343,6041379.353195137
424.2254783,6041373.9648307385
425.1568978,6041223.828514699
426.0947602,6041320.6049324535
427.0391337,6041281.356820691
427.9900874,6040818.95214945
428.9476917,6041475.377405387
429.9120175,6041568.765913515
430.8831369,6041175.82469395
431.8611232,6041461.773738805
432.8460504,6041402.194182396
433.8379937,6041331.7967121815
434.8370293,6041718.023890726
435.8432345,6041305.2216798775
436.8566878,6041723.010747668
437.8774686,6041559.48846403
438.9056575,6041660.529494186
439.9413364,6041410.180397793
440.9845882,6041253.056281441
442.035497,6041267.6777554825
443.0941482,6041839.618880282
444.1606283,6041435.934429704
445.23502520000005,6041394.951169337
446.317428,6041134.041771334
447.407927,6041086.883292021
448.5066141,6041329.181931626
449.6135822,6041535.358636648
450.7289258,6041339.631320632
451.85274060000006,6041649.880886261
452.9851239,6041625.962660006
454.1261744,6041317.685739841
455.2759921,6041618.164407307
456.4346788,6041259.203285228
457.6023374,6041443.524227562
458.7790727,6041538.543213842
459.9649909,6041321.177509506
461.1601998,6041181.788251855
462.364809,6041412.463788128
463.5789295,6041564.030605194
464.8026741000001,6041153.310135943
466.0361575,6041652.049873028
467.2794956999999,6042113.279602641
468.5328070000001,6041603.368261947
469.7962111000001,6041171.585289652
471.0698299,6041713.182845736
472.3537868,6041517.94733177
473.6482074,6041434.657541081
474.9532192,6041205.953385787
476.2689517,6041429.7387022525
477.5955362,6040998.767979511
478.93310639999993,6041448.0183773935
480.2817979,6041263.024967576
481.6417484,6041494.88633965
483.01309800000007,6041202.773925072
484.3959889,6041286.849603658
485.7905654,6041123.735394901
487.1969743,6041081.515491262
488.6153648,6041159.3598158825
490.0458884,6041358.771972895
491.488699,6041496.246528325
492.943953,6040965.21791501
494.4118094,6041038.360082462
495.8924299,6041433.343382442
497.3859785,6041610.980472395
498.8926222,6041637.480160588
500.4125306,6041132.123408545
501.9458762,6041433.703484844
503.4928341,6041309.90718905
505.0535827,6041852.220996265
506.628303,6041508.235937762
508.2171791999999,6041787.225180887
509.8203986,6040937.363539569
511.4381515,6041069.471831481
513.0706316000001,6041161.944463763
514.7180356,6041080.647960883
516.3805639,6041219.687144748
518.0584200000001,6041625.211654915
519.7518110000001,6041332.412816914
521.4609475999999,6041285.457149869
523.186044,6041244.995860451
524.927318,6041253.971364277
526.6849915,6041107.487765937
528.45929,6041489.477338651
530.2504428000001,6041075.786975239
532.0586836,6041219.693326945
533.8842498,6041784.744544973
535.7273833,6041402.3488000585
537.5883299,6041586.123066712
539.46734,6041160.3341103215
541.3646685,6041589.60110666
543.2805745000001,6041610.553565905
545.2153222000001,6040868.8257246325
547.1691801,6041334.904999953
549.1424218999999,6041118.758259991
551.1353259,6041573.145771126
553.1481756000001,6041561.578330345
555.1812597,6041585.042207139
557.2348721,6042049.435159456
559.3093121,6041262.444792188
561.4048845,6041651.953006764
563.5218996,6041490.93700872
565.6606737000001,6041269.322360521
567.8215287,6041589.087249218
570.0047927,6041071.335027892
572.2107997,6041324.330489246
574.4398902,6041287.040737358
576.692411,6041840.911168573
578.9687155,6041563.28073032
581.2691637,6041336.952901086
583.5941226,6041629.389185333
585.943966,6041327.158293207
588.3190752,6041298.774245382
590.7198384999999,6041458.269219585
593.1466518,6041379.0991868125
595.5999188999999,6041465.161310593
598.0800512,6041209.958266677
600.5874682,6041735.979505258
603.1225977000001,6041621.778477036
605.6858758999999,6041585.309562265
608.2777476,6041413.268573548
610.8986664,6041684.3928711135
613.549095,6041337.983826833
616.2295054,6041633.244834575
618.940379,6041846.526132137
621.6822068,6043249.152859671
624.4554901,6041242.909933664
627.2607402000001,6042671.666672695
630.0984786,6040265.304708884
632.9692378999999,6040359.189298132
635.8735614,6041627.7648778185
638.8120038,6039615.99227793
641.7851312999999,6040954.682169288
644.7935217999999,6043456.174059968
647.8377654,6039015.125961654
650.9184646000001,6042671.7463907935
654.0362346,6043408.967168342
657.1917038,6039254.793433443
660.3855139,6040183.312051946
663.6183202999999,6040252.730731637
666.8907926,6041814.006353644
671.0243889,6041817.049782247
671.949054,6041288.980459927
672.8766895,6041271.116313018
673.8073092,6041228.570076198
674.7409267,6041021.87285016
675.6775557999999,6041509.762488304
676.6172101,6041406.773123708
677.5599033,6041372.668337625
678.5056492000001,6041317.116322317
679.4544612999999,6041289.512202607
680.4063535,6041134.786884902
681.3613392999999,6041533.216924714
682.3194324,6041266.774412323
683.2806465,6041136.6792547135
684.2449952000001,6041656.735559247
685.2124921,6041453.935218197
686.1831509,6041477.807051958
687.1569850999999,6041447.407197123
688.1340083,6040951.0301357685
689.1142341,6041551.977994118
690.097676,6041295.175980351
691.0843474999999,6041496.867909148
692.0742622,6041330.458684293
693.0674334,6041360.913656178
694.0638748,6041843.168072684
695.0635996,6041188.541090461
696.0666212,6041507.856637272
697.0729531000001,6041130.160638803
698.0826086,6041226.637563645
699.0956008999999,6041517.02129734
700.1119432999999,6041433.962947777
701.1316491,6041447.719601933
702.1547314,6041815.003225118
703.1812034,6040981.717873668
704.2110782000001,6040967.6351438975
705.2443688999999,6041738.733177078
706.2810885,6041548.596795866
707.3212499,6041271.804002987
708.3648661000001,6041728.899340636
709.41195,6041584.068917628
710.4625143999999,6041240.915375478
711.5165721,6041437.214353087
712.5741357,6041658.888258887
713.6352181,6041853.817453749
714.6998317000001,6041671.885354993
715.7679891,6041130.504671548
716.8397027999999,6041436.080231153
717.9149852,6041318.773342314
718.9938487000001,6041110.558645267
720.0763055,6041722.756696959
721.162368,6041509.564044408
722.2520481,6041873.071762422
723.3453581,6041526.665576748
724.4423098,6041324.880358534
725.5429153,6041484.095598589
726.6471863,6041026.719533288
727.7551346,6041408.608434394
728.866772,6041784.03417271
729.9821099,6041725.843732835
731.1011599,6041513.788835146
732.2239335,6041210.168393136
733.3504419,6041645.331585477
734.4806963999999,6040885.036336835
735.6147081,6041689.546074187
736.7524882,6041305.1218696935
737.8940474,6041200.265325408
739.0393967,6041800.426085106
740.1885467999999,6041282.587589228
741.3415084,6041523.938211418
742.498292,6041349.3987891525
743.658908,6041682.543470183
744.8233667999999,6041026.177558086
745.9916785,6041609.620689474
747.1638532000001,6041236.894622227
748.3399009,6041267.287163357
749.5198315,6040997.277771267
750.7036546,6041894.717999257
751.89138,6041019.960727064
753.0830171,6041294.731642417
754.2785752999999,6041196.609560045
755.4780638,6040896.320479778
756.6814917,6041697.931365322
757.8888678999999,6041314.892698192
759.1002014999999,6041291.76002809
760.3155009,6041289.917748722
761.5347749,6036780.657062923
762.7580318,6023964.05980649
763.98528,5997712.657800937
765.2165276000001,5955951.308974412
766.4517825,5895347.040713949
767.6910527000001,5813382.031961722
768.9343458999999,5705559.672415217
770.1816697,5569875.59638177
771.4330313999999,5410181.127787641
772.6884382999999,5231843.763107789
773.9478975,5039085.463048446
775.211416,4832980.524139859
776.4790005,4616379.994471286
777.7506578,4391418.445752092
779.0263942,4162201.13336868
780.3062162,3932472.826492075
781.5901297,3704004.682353642
782.8781409,3478031.841765556
784.1702554999999,3257889.636634962
785.4664793,3047456.7490209923
786.7668176,2849790.805837604
788.0712758,2667880.449633716
789.3798591,2503522.8423466543
790.6925722999999,2356380.8811159288
792.0094204,2226130.71682236
793.3304079,2110622.710441304
794.6555392000001,2007214.1856742024
795.9848187000001,1913150.76315576
797.3182504,1825846.586434492
798.6558382999999,1742977.564362195
799.9975861,1663641.2775876955
801.3434973,1585741.904297726
802.6935752999999,1510419.1496726065
804.0478232999999,1437564.072187647
805.4062443,1367628.7720231244
806.7688411,1301695.3845820487
808.1356164,1240120.060906805
809.5065726,1183657.899297768
810.881712,1132334.1536698125
812.2610367000001,1085876.9113334347
813.6445485,1043587.3167137622
815.0322493,1004697.6743276272
816.4241404,968409.006576656
817.8202233,933318.2401410504
819.2204991,899116.5702209264
820.6249687999999,864897.1098753907
822.0336331,830232.955694159
823.4464925999999,794968.3611602952
824.8635477000001,759564.773113662
826.2847987,724118.5188902372
827.7102456,689123.515936417
829.1398882,655092.694732433
830.5737261,622111.7128145909
832.0117589,590517.13129382
833.4539857000001,560695.1867076791
834.9004057999999,532372.5912337779
836.3510179,505560.8878744025
837.8058209,479851.1261874744
839.2648132999999,455164.5877465536
840.7279934000001,431060.8606945975
842.1953594,407389.4142823333
843.6669092,384107.6578465593
845.1426408,361062.00322486064
846.6225517000001,338163.1508206549
848.1066392999999,315524.3289994862
849.5949009999999,293031.8247583148
851.0873337999999,271018.12152723875
852.5839347000001,249467.1316309073
854.0847002999999,228473.33789758905
855.5896273,208273.924826504
857.0987119999999,188741.7572744613
858.6119507000001,170146.76381401625
860.1293393999999,152510.40892807208
861.650874,136164.089540954
863.1765502000001,120960.25721488072
864.7063635,107014.17990464352
866.2403094,94338.80468785512
867.778383,82941.22315808732
869.3205793999999,72875.05904464095
870.8668935000001,63972.42718596479
872.4173199999999,56125.52867552271
873.9718536,49276.025414478776
875.5304886,43293.759152407234
877.0932193,38158.80559640124
878.6600399,33686.803771548395
880.2309443,29739.35129457298
881.8059264000001,26120.05528725268
883.3849798,22804.046260033087
884.9680981,19749.757825731333
886.5552747000002,16862.142316048292
888.1465029,14146.787363960331
889.7417757000001,11569.155556185571
891.3410862,9090.57184702946
892.9444273,6825.763449366958
894.5517916000001,4938.185893382236
896.1631719000001,3421.853088742012
897.7785605,2209.524925941165
899.3979498,1303.306992236457
901.0213321,660.9184241964713
902.6486995,256.61736409407644
904.280044,73.1600683633893
905.9153575,34.8168960149347
907.5546319,13.697765457150387
909.1978586,4.806466342541204
910.8450295,-3.375389010866936
912.4961358,-1.945838213316483
914.1511691,2.143651113792037
915.8101205,-5.588724546315235
917.4729813,-0.0847166052511163
919.1397426,-3.16334733574574
920.8103953,0.4415389257802514
922.4849303,4.762325317972104
924.1633386,0.3367390488550703
925.8456109,-2.954393976771409
927.5317378,1.1213101835771502
929.22171,-1.1784167152442042
930.9155179,-0.1959820145603092
932.6131521,2.623685655736
934.3146028,3.508808964553748
936.0198606,-1.4092467872262948
937.7289155,3.357051064217856
939.4417579,-0.1433549982058296
941.1583779,3.4924909085186995
942.8787656,1.7552833197681612
944.6029109,1.0438529115219704
946.3308041,1.61116527028671
948.0624349,-1.6406580822307812
949.7977933,0.0303627546615611
951.5368692,1.0054468414848572
953.2796523,2.8825024563870287
955.0261327,2.038386217692225
956.7762999,-0.9961022088620024
958.5301437,0.3059147389799099
960.2876539,-0.9832630871108788
962.0488201,-2.0465408019560334
963.813632,-3.145091001415989
965.5820793,-1.6500203217407448
967.3541517,-3.931627784697047
969.1298386,2.105018682888055
970.9091298,1.7033514814049606
972.6920149,-2.722886210281976
974.4784835,-0.4818640940231268
976.2685251,-0.3512474515183997
978.0621293,-4.374340339645181
979.8592859,-0.1795326001418748
981.6599843,1.1326973448076738
983.4642142,-1.3699780389486216
985.2719651,1.4194941617328218
987.0832269,-2.0340671427426784
988.897989,0.5951808195257647
990.7162412,0.8251880571268331
992.5379731,0.5697323218961414
994.3631745,-0.1305353913543167
996.191835,-2.5234487474089846
998.0239445,-1.4046168974828863
999.8594926,-1.721517714247634
1001.698469,0.1940873766338494
1003.540864,-2.4828015120146354
1005.386668,-0.2560380296789093
1007.235869,-1.0135027700346122
1009.088458,-1.3882057339090028
1010.944426,-1.4595044843212577
1012.803762,2.695458672122457
1014.666456,-1.7623914860927488
1016.532498,3.563393467847685
1018.401878,0.1326549887647255
1020.274588,2.036567084308109
1022.150616,-4.73185969603898
1024.029953,-1.7019446622146523
1025.912591,-1.3569396311604591
1027.798518,-1.7565954216705633
1029.687726,-0.98573078831702
1031.580205,0.4841937252135517
1033.475945,0.8186167813122637
1035.3749380000002,2.5893260434548018
1037.277175,1.538102537464364
1039.182645,-2.0127188922791954
1041.09134,2.6250894347966467
1043.003251,0.2137404881779373
1044.918368,-0.0573575810121391
1046.836683,0.7728066703273068
1048.758188,3.079024708981095
1050.682872,1.7863592040068756
1052.610728,-0.9875552316154448
1054.541747,0.8450681541709223
1056.4759210000002,0.5606905164531844
1058.41324,2.214747155831732
1060.353697,-0.1533507103623259
1062.297282,-3.1936625878301363
1064.243989,-6.004355355014276
