wave,flux
306.2504509,243.0431124989384
306.5604242,351.7875169959988
306.871524,467.0475569717222
307.18375710000004,587.679474928984
307.4971302,724.0094315108412
307.8116501,876.6309335150778
308.1273236,918.2722267925744
308.4441577,963.1202169841016
308.7621594,1009.8690988264896
309.0813356,1059.001276252784
309.4016935,1109.7033676410283
309.7232403,1161.5602380781286
310.04598300000004,1217.8144118830105
310.369929,1274.392041302407
310.6950856,1330.765300463307
311.0214601,1390.192485181152
311.34906010000003,1455.365535055967
311.6778931,1514.1530281297578
312.0079665,1567.3488924823307
312.33928810000003,1628.6401864367267
312.6718655,1692.8199974419406
313.00570639999995,1762.2791828563593
313.3408189,1839.265005005605
313.6772106,1931.1106689630108
314.0148896,2025.149988261019
314.3538639,2130.303570869916
314.6941415,2239.873841514958
315.0357308,2376.4304247385226
315.37863980000003,2521.515838255664
315.7228769,2673.011325154031
316.0684504,2828.947213617807
316.4153688,2994.748723356215
316.76364069999994,3160.131752790072
317.1132746,3330.2030632918136
317.4642791,3494.97598701359
317.8166631,3659.506654930653
318.1704352,3821.596257389487
318.5256045,3986.984319890924
318.8821799,4149.871441546592
319.2401704,4328.731526239441
319.5995851,4502.157151252409
319.96043330000003,4682.481719319313
320.3227243,4861.453208556957
320.6864673,5059.844757964608
321.0516719,5247.399182856153
321.4183476,5458.118126847237
321.786504,5663.429921861216
322.1561508,5889.467648301483
322.5272977,6110.292969869004
322.8999548,6352.16061749727
323.2741319,6610.027165908786
323.649839,6892.530355715413
324.0270864,7194.554001603066
324.40588419999995,7532.246376258498
324.7862428,7891.7367506038845
325.16817260000005,8310.870120004798
325.5516841,8789.30451813287
325.9367879,9334.511062585185
326.32349480000005,9965.053381037747
326.7118154,10665.11044214991
327.1017607,11476.740825319914
327.4933418,12395.763534018124
327.88656960000003,13429.33408324122
328.2814555,14578.54007238129
328.6780106,15851.33829555714
329.0762465,17268.318199954214
329.47617460000004,18872.904857450903
329.8778065,20659.12344294544
330.281154,22684.03748921669
330.6862289,24988.76249825297
331.0930432,27616.29067047378
331.5016088,30576.713347362424
331.911938,33972.715089992336
332.32404310000004,37779.88912887759
332.7379364,41986.8001956782
333.1536305,46646.88310208019
333.571138,51695.64116593052
333.9904716,57069.55805613209
334.4116443,62767.696261064295
334.834669,68658.53352618808
335.2595588,74705.44453119845
335.686327,80863.76439476763
336.114987,87101.82872373392
336.5455522,93328.55106977858
336.9780363,99544.01778145863
337.41245310000005,105746.19997362368
337.8488164,111860.65009944933
338.28714019999995,117936.10420670568
338.7274388,123812.5715247691
339.1697264,129496.01681352712
339.6140175,134899.79633389704
340.06032660000005,139906.34549737934
340.5086685,144433.6365265927
340.959058,148321.91464332974
341.4115102,151546.35424193105
341.8660403,154111.9580437121
342.32266339999995,156011.19035413984
342.7813952,157286.69400968438
343.24225110000003,158058.0629759576
343.70524710000007,158463.03852423644
344.17039889999995,158686.35290642767
344.6377228,158861.18652599063
345.1072349,159117.3409088525
345.5789517,159634.01833503798
346.0528897,160359.5918003319
346.5290657,161417.19985179702
347.0074967,162805.93170839414
347.48819960000003,164469.84653485668
347.9711917,166287.89118949778
348.45649060000005,168394.91226107688
348.9441137,170729.69945561045
349.434079,173349.15884201785
349.9264043,176451.67306135088
350.4211078,180229.77288148465
350.9182079,184864.3526396164
351.4177232,190668.6229232422
351.9196722,197891.39667761547
352.42407410000004,206689.5558210418
352.9309478,217082.5878360861
353.4403127,229138.89960089783
353.95218839999995,242603.37106119448
354.4665945,256944.3912765958
354.983551,271825.55311885674
355.503078,286574.1679357825
356.025196,300418.85537912423
356.5499253,312802.9347298879
357.077287,323012.7773800835
357.6073018,330711.0850119329
358.1399912,335470.3415223207
358.6753765,337265.70635805425
359.2134795,336336.63878591714
359.754322,332949.6196355419
360.2979263,327769.4085241028
360.8443147,321246.42263426963
361.3935098,314252.58734406694
361.9455346,307300.9046744388
362.5004122,301133.49281683605
363.058166,296277.1860840034
363.61881960000005,293048.296047983
364.1823969,291756.426855354
364.7489221,292536.21357824263
365.3184196,295228.3614613229
365.8909141,299905.17432427604
366.4664305,306361.87773864233
367.0449943,314206.18682740827
367.6266307,323208.228728003
368.2113658,332940.37857212854
368.7992255,343021.6210360866
369.3902363,353156.41732455854
369.9844249,362953.2577346912
370.5818182,372041.99581311375
371.1824436,380344.4821048421
371.7863286000001,387370.01010546007
372.3935012,393338.5367855175
373.0039896,398104.2807346981
373.6178223,401595.559307498
374.2350283,403982.2162502815
374.8556368,405434.6763739029
375.4796772,406236.12222879776
376.1071796,406707.40289511095
376.7381741,407130.405806136
377.3726913,407823.8433604407
378.0107622,409294.4153595664
378.652418,411814.0040296496
379.2976904,415879.4165247603
379.9466115,421714.9277495321
380.5992136,429538.2504601613
381.2555296,439687.77797869896
381.9155926,452139.0351260936
382.5794362,467143.3452509047
383.2470943,484534.4941456818
383.9186014,504510.49823796935
384.5939922,526700.7352175432
385.2733019,551525.094040719
385.9565661,578803.1967542571
386.6438209,608753.6959010683
387.3351027,641445.6942305331
388.0304484,676947.7519364649
388.7298955,715636.4354463089
389.4334817,757355.3839908955
390.1412452,802435.2658292436
390.853225,850659.2469242519
391.56946,901857.8787702944
392.2899901,955777.9161707564
393.0148555,1011671.197493096
393.7440968,1068606.4175623646
394.4777551,1125892.173034296
395.2158722,1182724.714102701
395.9584903,1237757.4461277383
396.7056521,1290429.5250147472
397.457401,1339736.7474363886
398.2137806,1385539.5608031962
398.9748353,1427658.032067709
399.7406101,1465886.9248967362
400.5111505,1501280.3407395482
401.2865024,1533771.401651641
402.0667126,1564489.1591173362
402.8518283,1593836.2452821375
403.6418973,1622496.2082113228
404.436968,1650862.4363250446
405.2370896,1678879.2541412609
406.0423117,1706989.5885546638
406.8526847,1734841.419429526
407.66825960000006,1762549.0302541154
408.4890879,1789821.3952108887
409.3152221,1816370.041960107
410.1467152,1843064.903438856
410.9836208,1869893.2749214915
411.8259934,1898118.244837164
412.673888,1928600.2668230447
413.5273605,1962834.9958085325
414.38646760000006,2002517.746610747
415.2512664,2048993.1090306104
416.1218152,2105213.3175485064
416.9981727,2171736.349950392
417.8803987,2250072.203136334
418.7685535,2340480.9576979657
419.6626985,2442681.3563878858
420.5628957,2555136.5940827304
421.4692081,2675415.8944238145
422.3816994,2799687.9824412274
423.3004343,2924162.20849346
424.2254783,3043655.4945096704
425.1568978,3154259.4223477887
426.0947602,3251889.536016657
427.0391337,3333799.2212295365
427.9900874,3399021.5339208893
428.9476917,3447899.7978475383
429.9120175,3482935.0172259687
430.8831369,3506947.628311314
431.8611232,3525409.887950109
432.8460504,3542748.2160836933
433.8379937,3564264.265202365
434.8370293,3594765.143963996
435.8432345,3636451.49143616
436.8566878,3691579.39001026
437.8774686,3760905.142834902
438.9056575,3842929.5801073336
439.9413364,3935412.000441148
440.9845882,4034933.653305458
442.035497,4137568.032930303
443.0941482,4240356.770400007
444.1606283,4340931.3733484335
445.23502520000005,4437841.589098087
446.317428,4529481.070488722
447.407927,4618777.862304354
448.5066141,4706905.902636335
449.6135822,4797136.420930008
450.7289258,4891891.508763853
451.85274060000006,4995354.100864435
452.9851239,5106337.514668309
454.1261744,5223753.065142867
455.2759921,5344987.0482758265
456.4346788,5466293.249638498
457.6023374,5584543.86407986
458.7790727,5694023.224796932
459.9649909,5790218.885244877
461.1601998,5868915.924950428
462.364809,5930173.763015022
463.5789295,5975557.305387327
464.8026741000001,6006567.919200108
466.0361575,6025710.1500346735
467.2794956999999,6036408.7247176375
468.5328070000001,6040576.384141194
469.7962111000001,6041105.066428661
471.0698299,6041728.233320099
472.3537868,6041486.103792549
473.6482074,6041520.257606927
474.9532192,6040739.951907421
476.2689517,6041491.460461494
477.5955362,6041523.720020657
478.93310639999993,6041243.854179871
480.2817979,6041651.588002453
481.6417484,6041597.900386807
483.01309800000007,6041464.1858979175
484.3959889,6041381.732455078
485.7905654,6041349.822308168
487.1969743,6041334.662400028
488.6153648,6041528.770965387
490.0458884,6041601.529848277
491.488699,6041557.145277753
492.943953,6041256.586579045
494.4118094,6041304.471748062
495.8924299,6041520.529444656
497.3859785,6041240.930827959
498.8926222,6041283.766139047
500.4125306,6041444.666774749
501.9458762,6041176.762158668
503.4928341,6041861.227219074
505.0535827,6041844.620910151
506.628303,6041665.008845091
508.2171791999999,6041307.69723665
509.8203986,6041682.9306567
511.4381515,6041797.857407073
513.0706316000001,6041794.855999436
514.7180356,6041454.859841067
516.3805639,6041581.055592832
518.0584200000001,6041276.446474623
519.7518110000001,6041183.849035342
521.4609475999999,6041367.912001868
523.186044,6040974.485612012
524.927318,6041626.845945543
526.6849915,6041256.987422451
528.45929,6041185.515261785
530.2504428000001,6041556.516969107
532.0586836,6041825.888293748
533.8842498,6041353.434136023
535.7273833,6040994.799791634
537.5883299,6041200.381855146
539.46734,6041520.833106679
541.3646685,6041394.216641458
543.2805745000001,6041540.611865931
545.2153222000001,6041428.819701745
547.1691801,6041605.796300174
549.1424218999999,6041425.2014896525
551.1353259,6041654.100003698
553.1481756000001,6041460.654529313
555.1812597,6041346.314163358
557.2348721,6041235.005650949
559.3093121,6041091.975049548
561.4048845,6041691.043197262
563.5218996,6041285.534971393
565.6606737000001,6041282.1309110215
567.8215287,6041517.6391380485
570.0047927,6041347.356506662
572.2107997,6041539.831592836
574.4398902,6041897.886996047
576.692411,6041486.669654663
578.9687155,6041523.877177169
581.2691637,6041335.782421349
583.5941226,6041735.387412743
585.943966,6041768.487037457
588.3190752,6041318.713139144
590.7198384999999,6041397.6346922135
593.1466518,6041842.64581219
595.5999188999999,6041290.06608347
598.0800512,6041202.529695845
600.5874682,6041063.040463562
603.1225977000001,6041494.526688877
605.6858758999999,6041690.600481638
608.2777476,6041749.125252365
610.8986664,6041221.002277638
613.549095,6041334.1062454125
616.2295054,6041729.143811828
618.940379,6042410.961734575
621.6822068,6040387.072838328
624.4554901,6040571.099615308
627.2607402000001,6040244.859140525
630.0984786,6043271.776587044
632.9692378999999,6042174.228438882
635.8735614,6041898.710350922
638.8120038,6041681.648034778
650.5455028,6041684.580826319
651.4056144,6041370.302348843
652.2683836,6041758.53502382
653.1338237000001,6041033.48180772
654.0019482999999,6041398.277759437
654.8727708,6041174.869245926
655.7463047,6041098.4605098935
656.6225636,6041247.998199501
657.501561,6041213.102491157
658.3833105,6041675.173506688
659.2678255,6041354.862794315
660.1551197000001,6041644.441429223
661.0452068,6041939.220913758
661.9381002,6041391.46357243
662.8338137000001,6041566.783747729
663.7323607999999,6041506.331844827
664.6337553,6041395.154352518
665.5380107000001,6041174.928814688
666.4451407,6041789.567108886
667.355159,6041768.990847449
668.2680793,6041025.600701578
669.1839152000001,6041878.621230503
670.1026805,6041536.203329182
671.0243889,6041817.049782247
671.949054,6041288.980459927
672.8766895,6041271.116313018
673.8073092,6041228.570076198
674.7409267,6041021.87285016
675.6775557999999,6041509.762488304
676.6172101,6041406.773123708
677.5599033,6041372.668337625
678.5056492000001,6041317.116322317
679.4544612999999,6041289.512202607
680.4063535,6041134.786884902
681.3613392999999,6041533.216924714
682.3194324,6041266.774412323
683.2806465,6041136.6792547135
684.2449952000001,6041656.735559247
685.2124921,6041453.935218197
686.1831509,6041477.807051958
687.1569850999999,6041447.407197123
688.1340083,6040951.0301357685
689.1142341,6041551.977994118
690.097676,6041295.175980351
691.0843474999999,6041496.867909148
692.0742622,6041330.458684293
693.0674334,6041360.913656178
694.0638748,6041843.168072684
695.0635996,6041188.541090461
696.0666212,6041507.856637272
697.0729531000001,6041130.160638803
698.0826086,6041226.637563645
699.0956008999999,6041517.02129734
700.1119432999999,6041433.962947777
701.1316491,6041447.719601933
702.1547314,6041815.003225118
703.1812034,6040981.717873668
704.2110782000001,6040967.6351438975
705.2443688999999,6041738.733177078
706.2810885,6041548.596795866
707.3212499,6041271.804002987
708.3648661000001,6041728.899340636
709.41195,6041584.068917628
710.4625143999999,6041240.915375478
711.5165721,6041437.214353087
712.5741357,6041658.888258887
713.6352181,6041853.817453749
714.6998317000001,6041671.885354993
715.7679891,6041130.504671548
716.8397027999999,6041436.080231153
717.9149852,6041318.773342314
718.9938487000001,6041110.558645267
720.0763055,6041722.756696959
721.162368,6041509.564044408
722.2520481,6041873.071762422
723.3453581,6041526.665576748
724.4423098,6041324.880358534
725.5429153,6041484.095598589
726.6471863,6041026.719533288
727.7551346,6041408.608434394
728.866772,6041784.03417271
729.9821099,6041725.843732835
731.1011599,6041513.788835146
732.2239335,6041210.168393136
733.3504419,6041645.331585477
734.4806963999999,6040885.036336835
735.6147081,6041689.546074187
736.7524882,6041305.1218696935
737.8940474,6041200.265325408
739.0393967,6041800.426085106
740.1885467999999,6041282.587589228
741.3415084,6041523.938211418
742.498292,6041349.3987891525
743.658908,6041682.543470183
744.8233667999999,6041026.177558086
745.9916785,6041609.620689474
747.1638532000001,6041236.894622227
748.3399009,6041267.287163357
749.5198315,6040997.277771267
750.7036546,6041894.717999257
751.89138,6041019.960727064
753.0830171,6041294.731642417
754.2785752999999,6041196.609560045
755.4780638,6040896.320479778
756.6814917,6041697.931365322
757.8888678999999,6041314.892698192
759.1002014999999,6041291.76002809
760.3155009,6041289.917748722
761.5347749,6036780.657062923
762.7580318,6023964.05980649
763.98528,5997712.657800937
765.2165276000001,5955951.308974412
766.4517825,5895347.040713949
767.6910527000001,5813382.031961722
768.9343458999999,5705559.672415217
770.1816697,5569875.59638177
771.4330313999999,5410181.127787641
772.6884382999999,5231843.763107789
773.9478975,5039085.463048446
775.211416,4832980.524139859
776.4790005,4616379.994471286
777.7506578,4391418.445752092
779.0263942,4162201.13336868
780.3062162,3932472.826492075
781.5901297,3704004.682353642
782.8781409,3478031.841765556
784.1702554999999,3257889.636634962
785.4664793,3047456.7490209923
786.7668176,2849790.805837604
788.0712758,2667880.449633716
789.3798591,2503522.8423466543
790.6925722999999,2356380.8811159288
792.0094204,2226130.71682236
793.3304079,2110622.710441304
794.6555392000001,2007214.1856742024
795.9848187000001,1913150.76315576
797.3182504,1825846.586434492
798.6558382999999,1742977.564362195
799.9975861,1663641.2775876955
801.3434973,1585741.904297726
802.6935752999999,1510419.1496726065
804.0478232999999,1437564.072187647
805.4062443,1367628.7720231244
806.7688411,1301695.3845820487
808.1356164,1240120.060906805
809.5065726,1183657.899297768
810.881712,1132334.1536698125
812.2610367000001,1085876.9113334347
813.6445485,1043587.3167137622
815.0322493,1004697.6743276272
816.4241404,968409.006576656
817.8202233,933318.2401410504
819.2204991,899116.5702209264
820.6249687999999,864897.1098753907
822.0336331,830232.955694159
823.4464925999999,794968.3611602952
824.8635477000001,759564.773113662
826.2847987,724118.5188902372
827.7102456,689123.515936417
829.1398882,655092.694732433
830.5737261,622111.7128145909
832.0117589,590517.13129382
833.4539857000001,560695.1867076791
834.9004057999999,532372.5912337779
836.3510179,505560.8878744025
837.8058209,479851.1261874744
839.2648132999999,455164.5877465536
840.7279934000001,431060.8606945975
842.1953594,407389.4142823333
843.6669092,384107.6578465593
845.1426408,361062.00322486064
846.6225517000001,338163.1508206549
848.1066392999999,315524.3289994862
849.5949009999999,293031.8247583148
851.0873337999999,271018.12152723875
852.5839347000001,249467.1316309073
854.0847002999999,228473.33789758905
855.5896273,208273.924826504
857.0987119999999,188741.7572744613
858.6119507000001,170146.76381401625
860.1293393999999,152510.40892807208
861.650874,136164.089540954
863.1765502000001,120960.25721488072
864.7063635,107014.17990464352
866.2403094,94338.80468785512
867.778383,82941.22315808732
869.3205793999999,72875.05904464095
870.8668935000001,63972.42718596479
872.4173199999999,56125.52867552271
873.9718536,49276.025414478776
875.5304886,43293.759152407234
877.0932193,38158.80559640124
878.6600399,33686.803771548395
880.2309443,29739.35129457298
881.8059264000001,26120.05528725268
883.3849798,22804.046260033087
884.9680981,19749.757825731333
886.5552747000002,16862.142316048292
888.1465029,14146.787363960331
889.7417757000001,11569.155556185571
891.3410862,9090.57184702946
892.9444273,6825.763449366958
894.5517916000001,4938.185893382236
896.1631719000001,3421.853088742012
897.7785605,2209.524925941165
899.3979498,1303.306992236457
901.0213321,660.9184241964713
902.6486995,256.61736409407644
904.280044,73.1600683633893
905.9153575,34.8168960149347
907.5546319,13.697765457150387
909.1978586,4.806466342541204
910.8450295,-3.375389010866936
912.4961358,-1.945838213316483
914.1511691,2.143651113792037
915.8101205,-5.588724546315235
917.4729813,-0.0847166052511163
919.1397426,-3.16334733574574
920.8103953,0.4415389257802514
922.4849303,4.762325317972104
924.1633386,0.3367390488550703
925.8456109,-2.954393976771409
927.5317378,1.1213101835771502
929.22171,-1.1784167152442042
930.9155179,-0.1959820145603092
932.6131521,2.623685655736
934.3146028,3.508808964553748
936.0198606,-1.4092467872262948
937.7289155,3.357051064217856
939.4417579,-0.1433549982058296
941.1583779,3.4924909085186995
942.8787656,1.7552833197681612
944.6029109,1.0438529115219704
946.3308041,1.61116527028671
948.0624349,-1.6406580822307812
949.7977933,0.0303627546615611
951.5368692,1.0054468414848572
953.2796523,2.8825024563870287
955.0261327,2.038386217692225
956.7762999,-0.9961022088620024
958.5301437,0.3059147389799099
960.2876539,-0.9832630871108788
962.0488201,-2.0465408019560334
963.813632,-3.145091001415989
965.5820793,-1.6500203217407448
967.3541517,-3.931627784697047
969.1298386,2.105018682888055
970.9091298,1.7033514814049606
972.6920149,-2.722886210281976
974.4784835,-0.4818640940231268
976.2685251,-0.3512474515183997
978.0621293,-4.374340339645181
979.8592859,-0.1795326001418748
981.6599843,1.1326973448076738
983.4642142,-1.3699780389486216
985.2719651,1.4194941617328218
987.0832269,-2.0340671427426784
988.897989,0.5951808195257647
990.7162412,0.8251880571268331
992.5379731,0.5697323218961414
994.3631745,-0.1305353913543167
996.191835,-2.5234487474089846
998.0239445,-1.4046168974828863
999.8594926,-1.721517714247634
1001.698469,0.1940873766338494
1003.540864,-2.4828015120146354
1005.386668,-0.2560380296789093
1007.235869,-1.0135027700346122
1009.088458,-1.3882057339090028
1010.944426,-1.4595044843212577
1012.803762,2.695458672122457
1014.666456,-1.7623914860927488
1016.532498,3.563393467847685
1018.401878,0.1326549887647255
1020.274588,2.036567084308109
1022.150616,-4.73185969603898
1024.029953,-1.7019446622146523
1025.912591,-1.3569396311604591
1027.798518,-1.7565954216705633
1029.687726,-0.98573078831702
1031.580205,0.4841937252135517
1033.475945,0.8186167813122637
1035.3749380000002,2.5893260434548018
1037.277175,1.538102537464364
