wave,flux
306.2504509,1014.3840411467056
306.5604242,1396.4250670827207
306.871524,1808.2008222485208
307.18375710000004,2264.2462252588016
307.4971302,2766.797746119428
307.8116501,3329.04460252014
308.1273236,3491.842003244156
308.4441577,3680.2284402920727
308.7621594,3894.8153590774255
309.0813356,4130.804823482484
309.4016935,4383.397709777824
309.7232403,4641.790628062935
310.04598300000004,4926.222557706942
310.369929,5230.113482313474
310.6950856,5550.940163483761
311.0214601,5866.701605250921
311.34906010000003,6186.874500859118
311.6778931,6494.071154451285
312.0079665,6807.735028562332
312.33928810000003,7099.51102665124
312.6718655,7410.23254924658
313.00570639999995,7689.771365921851
313.3408189,7971.299019312687
313.6772106,8297.971948153478
314.0148896,8630.301775999622
314.3538639,8986.63925279476
314.6941415,9373.869577435154
315.0357308,9800.111289433526
315.37863980000003,10269.026104429113
315.7228769,10756.604586194902
316.0684504,11281.813727759109
316.4153688,11840.62183707436
316.76364069999994,12429.8699178397
317.1132746,13061.454326526802
317.4642791,13706.769599896348
317.8166631,14405.987723606397
318.1704352,15112.416565560505
318.5256045,15859.392401493027
318.8821799,16637.71226165167
319.2401704,17451.884565949338
319.5995851,18272.64337181161
319.96043330000003,19086.826392733317
320.3227243,19926.58105577579
320.6864673,20737.554135945924
321.0516719,21568.138100210945
321.4183476,22424.08515033495
321.786504,23292.438423386266
322.1561508,24187.02196996468
322.5272977,25133.48627730913
322.8999548,26079.8204783376
323.2741319,27188.907698844985
323.649839,28497.010921206376
324.0270864,29972.41682244884
324.40588419999995,31679.955367780334
324.7862428,33737.59707485886
325.16817260000005,36133.78016904616
325.5516841,39138.88318065635
325.9367879,42726.54902476397
326.32349480000005,47075.191565920926
326.7118154,52323.46894118661
327.1017607,58563.71232432153
327.4933418,65880.9598258007
327.88656960000003,74425.51973971988
328.2814555,84207.77337232098
328.6780106,95144.10524219024
329.0762465,107141.46013704716
329.47617460000004,120041.64359495806
329.8778065,133535.15737290462
330.281154,147641.95791944332
330.6862289,161846.42395378512
331.0930432,176179.81262636988
331.5016088,190502.65955606263
331.911938,204796.32502543376
332.32404310000004,219256.72710689192
332.7379364,233910.97348249663
333.1536305,249187.95643253237
333.571138,265317.0852773189
333.9904716,282463.7567225141
334.4116443,300738.34555867064
334.834669,320043.90436277783
335.2595588,340110.25277651433
335.686327,360488.2609732293
336.114987,380436.92544891866
336.5455522,399397.3572295556
336.9780363,416488.63720884646
337.41245310000005,431180.7894780772
337.8488164,442799.0703829072
338.28714019999995,451086.1864871075
338.7274388,455980.2850674129
339.1697264,457813.7252724506
339.6140175,456962.09172446927
340.06032660000005,454308.24338283273
340.5086685,450814.4099659453
340.959058,447495.40817624686
341.4115102,445377.2948476642
341.8660403,445761.0929082873
342.32266339999995,449186.98966690607
342.7813952,456824.207600586
343.24225110000003,468983.4175078893
343.70524710000007,485943.81143982674
344.17039889999995,507814.51848449
344.6377228,534217.4400287998
345.1072349,564528.2179862155
345.5789517,597941.5682465945
346.0528897,633344.2620650609
346.5290657,669437.684184346
347.0074967,704845.4380746187
347.48819960000003,738161.3203052254
347.9711917,767959.8162921853
348.45649060000005,793344.8967353449
348.9441137,813286.9764491919
349.434079,827362.6379761933
349.9264043,835530.1867429577
350.4211078,838250.4927255141
350.9182079,836358.210301918
351.4177232,831130.5087970553
351.9196722,824323.1078250475
352.42407410000004,817256.5968286678
352.9309478,811828.575671343
353.4403127,809891.2258599277
353.95218839999995,812758.6114807584
354.4665945,821372.6505156031
354.983551,836478.9700543314
355.503078,858719.1617913581
356.025196,887718.1605675154
356.5499253,923075.1653599022
357.077287,964309.6558926336
357.6073018,1011067.9838212172
358.1399912,1061671.2849377273
358.6753765,1115897.9502164752
359.2134795,1172404.1035061309
359.754322,1230112.3597808534
360.2979263,1287945.3825754724
360.8443147,1344820.039637999
361.3935098,1399568.072610512
361.9455346,1451288.5077979318
362.5004122,1499037.8772389097
363.058166,1542860.000607584
363.61881960000005,1582714.3312835474
364.1823969,1618689.9563623706
364.7489221,1652048.8696160018
365.3184196,1683913.0219307246
365.8909141,1716113.960832678
366.4664305,1750105.912139112
367.0449943,1787957.6852741076
367.6266307,1830312.7518500704
368.2113658,1877801.97438534
368.7992255,1929853.1247969249
369.3902363,1986640.768187453
369.9844249,2045286.9168838477
370.5818182,2103998.2258821093
371.1824436,2160021.1178893344
371.7863286000001,2210419.7297609327
372.3935012,2252936.33558164
373.0039896,2285112.034626653
373.6178223,2306419.190733985
374.2350283,2315636.041363381
374.8556368,2313329.3562117126
375.4796772,2300836.0580095886
376.1071796,2280137.015681372
376.7381741,2253478.7853457504
377.3726913,2223072.408967177
378.0107622,2191980.2744249413
378.652418,2162235.2362556667
379.2976904,2134964.299392973
379.9466115,2111421.7013173737
380.5992136,2091797.6131902623
381.2555296,2076817.562374768
381.9155926,2064902.5930772184
382.5794362,2056611.0875780648
383.2470943,2049900.0499643143
383.9186014,2045588.839145516
384.5939922,2042381.7389549084
385.2733019,2041088.7424755583
385.9565661,2042487.43482126
386.6438209,2048747.23180152
387.3351027,2061383.2870886135
388.0304484,2082444.8835064068
388.7298955,2115156.3754410786
389.4334817,2160417.435970129
390.1412452,2219802.592928571
390.853225,2294363.8984829304
391.56946,2382627.767770246
392.2899901,2482462.7405244373
393.0148555,2592101.204192425
393.7440968,2709316.9067137246
394.4777551,2830626.523718964
395.2158722,2954643.191092511
395.9584903,3079708.6669670166
396.7056521,3205948.458542653
397.457401,3332530.536346352
398.2137806,3461243.591754896
398.9748353,3593997.0554156527
399.7406101,3730352.760468692
400.5111505,3870639.82776114
401.2865024,4015856.59116892
402.0667126,4162308.481630582
402.8518283,4309488.387156718
403.6418973,4454690.1748186285
404.436968,4595955.126870152
405.2370896,4731169.190340418
406.0423117,4860107.62296428
406.8526847,4982143.380158922
407.66825960000006,5097592.046332839
408.4890879,5207453.855023384
409.3152221,5312527.3349060565
410.1467152,5412073.398672485
410.9836208,5506159.4645276265
411.8259934,5591591.229875035
412.673888,5665568.400945895
413.5273605,5724039.068340743
414.38646760000006,5764622.103375183
415.2512664,5785070.744762923
416.1218152,5783113.8418367375
416.9981727,5760430.37165232
417.8803987,5717322.779719524
418.7685535,5657692.608383526
419.6626985,5585898.906357067
420.5628957,5505393.049478797
421.4692081,5419287.00382388
422.3816994,5328806.069774606
423.3004343,5233922.4955298165
424.2254783,5135111.172253036
425.1568978,5032137.100717388
426.0947602,4925661.711645478
427.0391337,4818506.24743944
427.9900874,4715363.947259204
428.9476917,4625326.590625485
429.9120175,4559995.284633855
430.8831369,4534724.2208060585
431.8611232,4552716.752043702
432.8460504,4616568.003220238
433.8379937,4724728.048490135
434.8370293,4872914.549987045
435.8432345,5053312.036494272
436.8566878,5249055.036824895
437.8774686,5444632.849919873
438.9056575,5613673.377692916
439.9413364,5755193.818216923
440.9845882,5866118.637816028
442.035497,5948216.764249967
443.0941482,6001664.0570459785
444.1606283,6030782.518833837
445.23502520000005,6041106.922072343
446.317428,6041623.062320325
447.407927,6041357.362706945
448.5066141,6041284.219603394
449.6135822,6041169.58678364
450.7289258,6041047.888313779
451.85274060000006,6041784.100669143
452.9851239,6041416.183575219
454.1261744,6041775.179784172
455.2759921,6041800.672648715
456.4346788,6041198.648866506
457.6023374,6041812.67906228
458.7790727,6041417.128217875
459.9649909,6041836.246418035
461.1601998,6041282.206309781
462.364809,6041611.369746367
463.5789295,6041086.5201648185
464.8026741000001,6041430.132183686
466.0361575,6042031.141471081
467.2794956999999,6040993.002180526
468.5328070000001,6041211.525729407
469.7962111000001,6041425.393184708
471.0698299,6041463.448531562
472.3537868,6040787.246521659
473.6482074,6040946.058634614
474.9532192,6041534.668389448
476.2689517,6041053.496144488
477.5955362,6041758.204040875
478.93310639999993,6041016.94230434
480.2817979,6041232.925550351
481.6417484,6041615.0672386335
483.01309800000007,6041447.585406695
484.3959889,6041482.521039335
485.7905654,6041292.014664058
487.1969743,6041087.582555759
488.6153648,6041796.824499191
490.0458884,6041415.573878842
491.488699,6041223.607388218
492.943953,6041856.530210408
494.4118094,6041188.202603519
495.8924299,6041468.802544783
497.3859785,6041399.818150592
498.8926222,6041654.961656586
500.4125306,6041532.853570173
501.9458762,6041288.193057111
503.4928341,6041428.778669807
505.0535827,6041714.849142091
506.628303,6041711.275680132
508.2171791999999,6041455.00550915
509.8203986,6041708.660371391
511.4381515,6041178.965413987
513.0706316000001,6041528.920452788
514.7180356,6041596.295914532
516.3805639,6041549.587209886
518.0584200000001,6041163.5916295
519.7518110000001,6041686.509171495
521.4609475999999,6041108.836644502
523.186044,6041264.069440511
524.927318,6041218.47557222
526.6849915,6041782.075591055
528.45929,6041249.781819657
530.2504428000001,6041156.148640743
532.0586836,6041247.535122887
533.8842498,6041531.012798877
535.7273833,6040992.680764719
537.5883299,6041501.620846061
539.46734,6041540.338200352
541.3646685,6041661.3556717085
543.2805745000001,6041691.525892608
545.2153222000001,6041738.26300175
547.1691801,6041158.8649278525
549.1424218999999,6041281.250374258
551.1353259,6041131.066878255
553.1481756000001,6041262.308107467
555.1812597,6041516.103845936
557.2348721,6040967.121741328
559.3093121,6041437.162020393
561.4048845,6041551.532796742
563.5218996,6041598.7874396285
565.6606737000001,6041445.139454412
567.8215287,6041578.696486727
570.0047927,6041568.671420872
572.2107997,6040712.289445693
574.4398902,6041364.366240783
576.692411,6041463.154938568
578.9687155,6041376.7708556
581.2691637,6041435.290819221
583.5941226,6041229.647942878
585.943966,6041227.646790482
588.3190752,6041597.83664023
590.7198384999999,6041459.297462557
593.1466518,6041213.824434654
595.5999188999999,6041416.112818214
598.0800512,6041419.153507417
600.5874682,6041347.337590376
603.1225977000001,6040993.142535449
605.6858758999999,6041471.127986047
608.2777476,6041031.174166222
610.8986664,6041386.058857154
613.549095,6041457.490143719
616.2295054,6041334.953483165
618.940379,6041484.726183368
621.6822068,6043383.842763673
624.4554901,6040892.260099947
627.2607402000001,6041732.99733632
630.0984786,6042235.017260877
632.9692378999999,6042829.242372178
635.8735614,6039711.0716310665
638.8120038,6041414.710488332
641.7851312999999,6041925.144319993
644.7935217999999,6041404.39758979
647.8377654,6041282.705425124
650.9184646000001,6041157.593926215
654.0362346,6042136.678510061
657.1917038,6040609.666120513
660.3855139,6040228.782156005
663.6183202999999,6043892.713287689
666.8907926,6043016.51143893
670.2036149,6042731.606120211
673.557486,6039483.295898714
676.9531202000001,6038896.784574673
680.3912472999999,6040388.4242969565
683.8726131,6044815.495928971
687.3979803,6041864.989389511
690.9681281000001,6041184.932205946
695.0635996,6041188.541090461
696.0666212,6041507.856637272
697.0729531000001,6041130.160638803
698.0826086,6041226.637563645
699.0956008999999,6041517.02129734
700.1119432999999,6041433.962947777
701.1316491,6041447.719601933
702.1547314,6041815.003225118
703.1812034,6040981.717873668
704.2110782000001,6040967.6351438975
705.2443688999999,6041738.733177078
706.2810885,6041548.596795866
707.3212499,6041271.804002987
708.3648661000001,6041728.899340636
709.41195,6041584.068917628
710.4625143999999,6041240.915375478
711.5165721,6041437.214353087
712.5741357,6041658.888258887
713.6352181,6041853.817453749
714.6998317000001,6041671.885354993
715.7679891,6041130.504671548
716.8397027999999,6041436.080231153
717.9149852,6041318.773342314
718.9938487000001,6041110.558645267
720.0763055,6041722.756696959
721.162368,6041509.564044408
722.2520481,6041873.071762422
723.3453581,6041526.665576748
724.4423098,6041324.880358534
725.5429153,6041484.095598589
726.6471863,6041026.719533288
727.7551346,6041408.608434394
728.866772,6041784.03417271
729.9821099,6041725.843732835
731.1011599,6041513.788835146
732.2239335,6041210.168393136
733.3504419,6041645.331585477
734.4806963999999,6040885.036336835
735.6147081,6041689.546074187
736.7524882,6041305.1218696935
737.8940474,6041200.265325408
739.0393967,6041800.426085106
740.1885467999999,6041282.587589228
741.3415084,6041523.938211418
742.498292,6041349.3987891525
743.658908,6041682.543470183
744.8233667999999,6041026.177558086
745.9916785,6041609.620689474
747.1638532000001,6041236.894622227
748.3399009,6041267.287163357
749.5198315,6040997.277771267
750.7036546,6041894.717999257
751.89138,6041019.960727064
753.0830171,6041294.731642417
754.2785752999999,6041196.609560045
755.4780638,6040896.320479778
756.6814917,6041697.931365322
757.8888678999999,6041314.892698192
759.1002014999999,6041291.76002809
760.3155009,6041289.917748722
761.5347749,6036780.657062923
762.7580318,6023964.05980649
763.98528,5997712.657800937
765.2165276000001,5955951.308974412
766.4517825,5895347.040713949
767.6910527000001,5813382.031961722
768.9343458999999,5705559.672415217
770.1816697,5569875.59638177
771.4330313999999,5410181.127787641
772.6884382999999,5231843.763107789
773.9478975,5039085.463048446
775.211416,4832980.524139859
776.4790005,4616379.994471286
777.7506578,4391418.445752092
779.0263942,4162201.13336868
780.3062162,3932472.826492075
781.5901297,3704004.682353642
782.8781409,3478031.841765556
784.1702554999999,3257889.636634962
785.4664793,3047456.7490209923
786.7668176,2849790.805837604
788.0712758,2667880.449633716
789.3798591,2503522.8423466543
790.6925722999999,2356380.8811159288
792.0094204,2226130.71682236
793.3304079,2110622.710441304
794.6555392000001,2007214.1856742024
795.9848187000001,1913150.76315576
797.3182504,1825846.586434492
798.6558382999999,1742977.564362195
799.9975861,1663641.2775876955
801.3434973,1585741.904297726
802.6935752999999,1510419.1496726065
804.0478232999999,1437564.072187647
805.4062443,1367628.7720231244
806.7688411,1301695.3845820487
808.1356164,1240120.060906805
809.5065726,1183657.899297768
810.881712,1132334.1536698125
812.2610367000001,1085876.9113334347
813.6445485,1043587.3167137622
815.0322493,1004697.6743276272
816.4241404,968409.006576656
817.8202233,933318.2401410504
819.2204991,899116.5702209264
820.6249687999999,864897.1098753907
822.0336331,830232.955694159
823.4464925999999,794968.3611602952
824.8635477000001,759564.773113662
826.2847987,724118.5188902372
827.7102456,689123.515936417
829.1398882,655092.694732433
830.5737261,622111.7128145909
832.0117589,590517.13129382
833.4539857000001,560695.1867076791
834.9004057999999,532372.5912337779
836.3510179,505560.8878744025
837.8058209,479851.1261874744
839.2648132999999,455164.5877465536
840.7279934000001,431060.8606945975
842.1953594,407389.4142823333
843.6669092,384107.6578465593
845.1426408,361062.00322486064
846.6225517000001,338163.1508206549
848.1066392999999,315524.3289994862
849.5949009999999,293031.8247583148
851.0873337999999,271018.12152723875
852.5839347000001,249467.1316309073
854.0847002999999,228473.33789758905
855.5896273,208273.924826504
857.0987119999999,188741.7572744613
858.6119507000001,170146.76381401625
860.1293393999999,152510.40892807208
861.650874,136164.089540954
863.1765502000001,120960.25721488072
864.7063635,107014.17990464352
866.2403094,94338.80468785512
867.778383,82941.22315808732
869.3205793999999,72875.05904464095
870.8668935000001,63972.42718596479
872.4173199999999,56125.52867552271
873.9718536,49276.025414478776
875.5304886,43293.759152407234
877.0932193,38158.80559640124
878.6600399,33686.803771548395
880.2309443,29739.35129457298
881.8059264000001,26120.05528725268
883.3849798,22804.046260033087
884.9680981,19749.757825731333
886.5552747000002,16862.142316048292
888.1465029,14146.787363960331
889.7417757000001,11569.155556185571
891.3410862,9090.57184702946
892.9444273,6825.763449366958
894.5517916000001,4938.185893382236
896.1631719000001,3421.853088742012
897.7785605,2209.524925941165
899.3979498,1303.306992236457
901.0213321,660.9184241964713
902.6486995,256.61736409407644
904.280044,73.1600683633893
905.9153575,34.8168960149347
907.5546319,13.697765457150387
909.1978586,4.806466342541204
910.8450295,-3.375389010866936
912.4961358,-1.945838213316483
914.1511691,2.143651113792037
915.8101205,-5.588724546315235
917.4729813,-0.0847166052511163
919.1397426,-3.16334733574574
920.8103953,0.4415389257802514
922.4849303,4.762325317972104
924.1633386,0.3367390488550703
925.8456109,-2.954393976771409
927.5317378,1.1213101835771502
929.22171,-1.1784167152442042
930.9155179,-0.1959820145603092
932.6131521,2.623685655736
934.3146028,3.508808964553748
936.0198606,-1.4092467872262948
937.7289155,3.357051064217856
939.4417579,-0.1433549982058296
941.1583779,3.4924909085186995
942.8787656,1.7552833197681612
944.6029109,1.0438529115219704
946.3308041,1.61116527028671
948.0624349,-1.6406580822307812
949.7977933,0.0303627546615611
951.5368692,1.0054468414848572
953.2796523,2.8825024563870287
955.0261327,2.038386217692225
956.7762999,-0.9961022088620024
958.5301437,0.3059147389799099
960.2876539,-0.9832630871108788
962.0488201,-2.0465408019560334
963.813632,-3.145091001415989
965.5820793,-1.6500203217407448
967.3541517,-3.931627784697047
969.1298386,2.105018682888055
970.9091298,1.7033514814049606
972.6920149,-2.722886210281976
974.4784835,-0.4818640940231268
976.2685251,-0.3512474515183997
978.0621293,-4.374340339645181
979.8592859,-0.1795326001418748
981.6599843,1.1326973448076738
983.4642142,-1.3699780389486216
985.2719651,1.4194941617328218
987.0832269,-2.0340671427426784
988.897989,0.5951808195257647
990.7162412,0.8251880571268331
992.5379731,0.5697323218961414
994.3631745,-0.1305353913543167
996.191835,-2.5234487474089846
998.0239445,-1.4046168974828863
999.8594926,-1.721517714247634
1001.698469,0.1940873766338494
1003.540864,-2.4828015120146354
1005.386668,-0.2560380296789093
1007.235869,-1.0135027700346122
1009.088458,-1.3882057339090028
1010.944426,-1.4595044843212577
1012.803762,2.695458672122457
1014.666456,-1.7623914860927488
1016.532498,3.563393467847685
1018.401878,0.1326549887647255
1020.274588,2.036567084308109
1022.150616,-4.73185969603898
1024.029953,-1.7019446622146523
1025.912591,-1.3569396311604591
1027.798518,-1.7565954216705633
1029.687726,-0.98573078831702
1031.580205,0.4841937252135517
1033.475945,0.8186167813122637
1035.3749380000002,2.5893260434548018
1037.277175,1.538102537464364
1039.182645,-2.0127188922791954
1041.09134,2.6250894347966467
1043.003251,0.2137404881779373
1044.918368,-0.0573575810121391
1046.836683,0.7728066703273068
1048.758188,3.079024708981095
1050.682872,1.7863592040068756
1052.610728,-0.9875552316154448
1054.541747,0.8450681541709223
1056.4759210000002,0.5606905164531844
1058.41324,2.214747155831732
1060.353697,-0.1533507103623259
1062.297282,-3.1936625878301363
1064.243989,-6.004355355014276
1066.193809,1.6975392031795646
1068.146734,-1.8391697537208151
1070.102755,-1.0996296138543131
1072.061865,0.8926713113443641
1074.024056,2.2107648134886464
1075.989321,-2.4650492132498067
1077.957651,0.1139664012951578
1079.92904,-0.1832930190834896
1081.9034800000002,-0.0468904277091718
1083.880963,0.5263171524006843
1085.861482,-1.851421895764164
1087.8450300000002,-6.139452158509519
1089.8316,1.0452978241809137
1091.821185,0.6195830011674871
1093.8137789999998,-1.4805380120059908
1095.809373,1.2906043979323651
1097.807962,2.1492273529488672
1099.809539,-3.3220401098019128
