wave,flux
306.2504509,443.5305853963665
306.5604242,616.291493332146
306.871524,817.6485053326725
307.18375710000004,1028.2547492794452
307.4971302,1246.4387351910698
307.8116501,1476.3408529515054
308.1273236,1532.293315149498
308.4441577,1585.8471067060916
308.7621594,1651.9977867028692
309.0813356,1720.092889011322
309.4016935,1787.9502194955865
309.7232403,1867.589400622404
310.04598300000004,1945.7319503815315
310.369929,2044.152768708008
310.6950856,2141.100062181617
311.0214601,2253.522840122628
311.34906010000003,2363.429804084157
311.6778931,2478.148971615504
312.0079665,2591.411367455729
312.33928810000003,2716.4110139434547
312.6718655,2843.27548405294
313.00570639999995,2963.664544406213
313.3408189,3090.8252420952763
313.6772106,3240.318146763725
314.0148896,3385.997317664773
314.3538639,3544.687071524082
314.6941415,3723.581298664759
315.0357308,3916.747365880877
315.37863980000003,4121.890534913503
315.7228769,4354.014631438761
316.0684504,4584.766576381046
316.4153688,4836.494048255177
316.76364069999994,5099.054653697917
317.1132746,5369.605571626646
317.4642791,5656.809503428406
317.8166631,5945.32981902784
318.1704352,6246.070608966225
318.5256045,6535.512375078349
318.8821799,6841.3065392601575
319.2401704,7134.037503638749
319.5995851,7415.561943298492
319.96043330000003,7696.850914996787
320.3227243,7946.567112115242
320.6864673,8193.441096859557
321.0516719,8427.529963417415
321.4183476,8645.218795911842
321.786504,8880.400361445498
322.1561508,9091.044893106384
322.5272977,9363.808760178255
322.8999548,9633.983151536278
323.2741319,9948.298079216946
323.649839,10333.307016205
324.0270864,10778.981043039994
324.40588419999995,11290.984927156762
324.7862428,11915.684847117249
325.16817260000005,12655.360116954877
325.5516841,13539.728308056998
325.9367879,14605.330104891582
326.32349480000005,15919.797614852036
326.7118154,17567.644804972562
327.1017607,19544.089032735632
327.4933418,22033.99419916245
327.88656960000003,25139.31461582348
328.2814555,28943.305093938627
328.6780106,33576.14440550844
329.0762465,39057.4301240896
329.47617460000004,45587.99525222748
329.8778065,53067.1796936894
330.281154,61490.699158470125
330.6862289,70725.4970553673
331.0930432,80648.66788995563
331.5016088,90904.84994340267
331.911938,101253.79866544229
332.32404310000004,111426.60633503667
332.7379364,121036.67793143968
333.1536305,129863.7931956776
333.571138,137683.66522574512
333.9904716,144399.30214482042
334.4116443,149918.6236146793
334.834669,154269.6521340424
335.2595588,157621.33939200506
335.686327,160091.72802033607
336.114987,161780.9948334209
336.5455522,163011.75712306867
336.9780363,163812.12475874563
337.41245310000005,164285.76058050813
337.8488164,164502.43329142194
338.28714019999995,164471.0135641318
338.7274388,164292.7306438136
339.1697264,163997.75413702364
339.6140175,163457.96738683144
340.06032660000005,162804.76853743134
340.5086685,162053.0177611855
340.959058,161270.6274490697
341.4115102,160518.04033813314
341.8660403,159943.92033451665
342.32266339999995,159612.66521194647
342.7813952,159609.26471778407
343.24225110000003,160204.1770010955
343.70524710000007,161477.9547593631
344.17039889999995,163571.95646797572
344.6377228,166645.31283186533
345.1072349,170876.7433781685
345.5789517,176332.80095906672
346.0528897,183070.06329643
346.5290657,190999.35970971448
347.0074967,200048.41361684547
347.48819960000003,209919.01143679727
347.9711917,220349.352953528
348.45649060000005,230925.8227299752
348.9441137,241266.6324312377
349.434079,251053.4656255277
349.9264043,259966.4515222225
350.4211078,267818.6753042878
350.9182079,274650.40848772466
351.4177232,280546.78362694744
351.9196722,285707.6222894484
352.42407410000004,290525.8090241023
352.9309478,295395.3393041765
353.4403127,300831.5138328992
353.95218839999995,307177.2908380692
354.4665945,314694.67075086536
354.983551,323654.4822018916
355.503078,333986.0222436612
356.025196,345700.25569200405
356.5499253,358557.3264267839
357.077287,372250.9928815975
357.6073018,386352.9792249644
358.1399912,400359.175146163
358.6753765,413793.5709404984
359.2134795,426065.86769710656
359.754322,436683.4479046338
360.2979263,445246.7296934286
360.8443147,451348.3959086893
361.3935098,454680.43618275103
361.9455346,455380.6908257032
362.5004122,453492.4481915816
363.058166,449338.6429559368
363.61881960000005,443594.3507072327
364.1823969,436918.4910326832
364.7489221,430158.7701425388
365.3184196,424224.3952391995
365.8909141,420139.58953670814
366.4664305,418377.131335459
367.0449943,419489.2756522474
367.6266307,423642.4332626301
368.2113658,430682.6750953969
368.7992255,440083.7552413021
369.3902363,451087.0057397596
369.9844249,462731.2649824324
370.5818182,474160.3311862592
371.1824436,484245.6128214001
371.7863286000001,492054.313025041
372.3935012,496896.6335717528
373.0039896,498695.4082702346
373.6178223,497398.5567798796
374.2350283,492998.1454756678
374.8556368,486285.47637775575
375.4796772,477845.4450695668
376.1071796,468435.0612931535
376.7381741,458935.4660241243
377.3726913,450160.3655085099
378.0107622,442857.6879268319
378.652418,437687.2807725903
379.2976904,435166.0300600779
379.9466115,435792.8588970272
380.5992136,439871.4370486749
381.2555296,447699.0236306217
381.9155926,459703.4007116447
382.5794362,475981.75468416646
383.2470943,496850.5899119978
383.9186014,522392.9155033876
384.5939922,552193.7299764659
385.2733019,586326.179789594
385.9565661,624123.8090877589
386.6438209,665133.830705161
387.3351027,708269.9071953329
388.0304484,752931.3403626916
388.7298955,798167.0440387905
389.4334817,843124.2223905445
390.1412452,888063.2151935148
390.853225,932785.9824694166
391.56946,977217.0276159098
392.2899901,1021561.6226986698
393.0148555,1066962.8811403292
393.7440968,1113873.248331765
394.4777551,1163805.4961917424
395.2158722,1217954.3728167478
395.9584903,1275834.8792670644
396.7056521,1338208.011611126
397.457401,1405738.566630096
398.2137806,1478179.5327342225
398.9748353,1554891.938501367
399.7406101,1634651.4827640734
400.5111505,1715348.75899206
401.2865024,1794439.9800854146
402.0667126,1870655.996492176
402.8518283,1940879.5867959976
403.6418973,2003428.8536182984
404.436968,2056636.419717022
405.2370896,2099512.6713072765
406.0423117,2132740.6365829874
406.8526847,2157118.131906369
407.66825960000006,2174918.5862604105
408.4890879,2188913.064280915
409.3152221,2202514.563617346
410.1467152,2219426.6374365143
410.9836208,2242927.672183724
411.8259934,2276198.7039249763
412.673888,2322070.244070712
413.5273605,2380894.9797877725
414.38646760000006,2453573.545436562
415.2512664,2539425.855144352
416.1218152,2635714.080110044
416.9981727,2740238.186576159
417.8803987,2848704.0384317995
418.7685535,2958620.8061595983
419.6626985,3066831.013005216
420.5628957,3171994.3820447214
421.4692081,3273196.444207265
422.3816994,3371647.9016382694
423.3004343,3469409.517867609
424.2254783,3569956.010312232
425.1568978,3677589.156504295
426.0947602,3796662.519124938
427.0391337,3930724.953282235
427.9900874,4082511.510548989
428.9476917,4252400.372564768
429.9120175,4438392.179288807
430.8831369,4637208.896256713
431.8611232,4842098.596715912
432.8460504,5047020.298238676
433.8379937,5243895.141665138
434.8370293,5425005.521195763
435.8432345,5585337.287893577
436.8566878,5720303.221306292
437.8774686,5827229.36046738
438.9056575,5907357.093274107
439.9413364,5963815.438033606
440.9845882,6001538.175610544
442.035497,6024447.257395335
443.0941482,6035580.950381138
444.1606283,6040274.165937025
445.23502520000005,6041526.830319235
446.317428,6041353.427357568
447.407927,6041389.638767388
448.5066141,6041294.398038643
449.6135822,6041859.25164714
450.7289258,6041294.609941771
451.85274060000006,6041222.964263375
452.9851239,6041146.785601829
454.1261744,6041287.686837018
455.2759921,6041852.4012352815
456.4346788,6041001.77092876
457.6023374,6041708.391395032
458.7790727,6041770.127952731
459.9649909,6041371.142770384
461.1601998,6041279.872395173
462.364809,6041285.731716152
463.5789295,6041153.220208531
464.8026741000001,6041446.892640297
466.0361575,6041482.8468933
467.2794956999999,6041269.912344356
468.5328070000001,6041619.367918264
469.7962111000001,6041604.685061581
471.0698299,6041769.092349141
472.3537868,6041616.574125869
473.6482074,6041318.651936387
474.9532192,6041481.744044826
476.2689517,6041440.672297835
477.5955362,6041176.990428504
478.93310639999993,6041107.903059548
480.2817979,6041037.218150565
481.6417484,6041576.653950652
483.01309800000007,6041708.769564939
484.3959889,6041433.651346022
485.7905654,6041515.782171528
487.1969743,6041321.758186317
488.6153648,6041479.3245306425
490.0458884,6041447.349970558
491.488699,6041283.292087461
492.943953,6040957.61647712
494.4118094,6041508.56696678
495.8924299,6041173.7976681935
497.3859785,6041272.655897595
498.8926222,6042021.091222532
500.4125306,6041380.980301259
501.9458762,6041493.589130314
503.4928341,6041340.874243931
505.0535827,6041204.215819784
506.628303,6041510.671176123
508.2171791999999,6040899.201126353
509.8203986,6041808.4204479465
511.4381515,6041599.916577071
513.0706316000001,6041592.609477246
514.7180356,6041806.327260688
516.3805639,6041459.926658769
518.0584200000001,6041586.130446964
519.7518110000001,6041501.192891233
521.4609475999999,6041175.1694431
523.186044,6041118.504239764
524.927318,6041473.194191667
526.6849915,6041150.397211659
528.45929,6041918.83004873
530.2504428000001,6041297.052312171
532.0586836,6041410.982964845
533.8842498,6041511.710122751
535.7273833,6041600.000459794
537.5883299,6041367.82557221
539.46734,6041530.113885571
541.3646685,6041481.5450429125
543.2805745000001,6041345.613428191
545.2153222000001,6041707.5446906565
547.1691801,6041672.933448737
549.1424218999999,6041637.30471202
551.1353259,6041019.8987557385
553.1481756000001,6041471.149940678
555.1812597,6041213.609525243
557.2348721,6041592.552874698
559.3093121,6041581.632508099
561.4048845,6040908.678984452
563.5218996,6041344.33552949
565.6606737000001,6041520.274070304
567.8215287,6041376.794065244
570.0047927,6041371.980030479
572.2107997,6041723.105536883
574.4398902,6041329.529030092
576.692411,6041590.30232943
578.9687155,6041012.291916811
581.2691637,6041179.7028041575
583.5941226,6041473.048175748
585.943966,6041413.963536751
588.3190752,6041714.780189614
590.7198384999999,6041083.808412127
593.1466518,6041624.412009028
595.5999188999999,6042146.070256484
598.0800512,6041630.118170197
600.5874682,6041848.706802251
603.1225977000001,6041671.121485634
605.6858758999999,6041509.127888393
608.2777476,6041481.373663033
610.8986664,6041244.320236639
613.549095,6041035.062283726
616.2295054,6041174.267900086
618.940379,6041870.936071844
621.6822068,6039507.72869783
624.4554901,6040092.708396726
627.2607402000001,6042101.5118357465
630.0984786,6041460.9768543225
632.9692378999999,6040729.179713915
635.8735614,6041396.325016692
638.8120038,6043266.892396268
641.7851312999999,6041602.844861317
644.7935217999999,6040558.448324908
647.8377654,6041362.383768975
650.9184646000001,6043712.492294421
654.0362346,6042207.059463222
657.1917038,6041068.255800048
660.3855139,6042071.6339453375
663.6183202999999,6040847.522537421
666.8907926,6040622.045010019
670.2036149,6042144.074579483
673.557486,6039969.337730917
676.9531202000001,6041725.905586557
680.3912472999999,6039969.505415453
683.8726131,6041771.208588458
687.3979803,6041592.918932736
690.9681281000001,6042369.239048027
694.5838534,6041442.159457471
698.2459709,6042273.8938875925
701.9553139,6041268.540081552
707.3212499,6041271.804002987
708.3648661000001,6041728.899340636
709.41195,6041584.068917628
710.4625143999999,6041240.915375478
711.5165721,6041437.214353087
712.5741357,6041658.888258887
713.6352181,6041853.817453749
714.6998317000001,6041671.885354993
715.7679891,6041130.504671548
716.8397027999999,6041436.080231153
717.9149852,6041318.773342314
718.9938487000001,6041110.558645267
720.0763055,6041722.756696959
721.162368,6041509.564044408
722.2520481,6041873.071762422
723.3453581,6041526.665576748
724.4423098,6041324.880358534
725.5429153,6041484.095598589
726.6471863,6041026.719533288
727.7551346,6041408.608434394
728.866772,6041784.03417271
729.9821099,6041725.843732835
731.1011599,6041513.788835146
732.2239335,6041210.168393136
733.3504419,6041645.331585477
734.4806963999999,6040885.036336835
735.6147081,6041689.546074187
736.7524882,6041305.1218696935
737.8940474,6041200.265325408
739.0393967,6041800.426085106
740.1885467999999,6041282.587589228
741.3415084,6041523.938211418
742.498292,6041349.3987891525
743.658908,6041682.543470183
744.8233667999999,6041026.177558086
745.9916785,6041609.620689474
747.1638532000001,6041236.894622227
748.3399009,6041267.287163357
749.5198315,6040997.277771267
750.7036546,6041894.717999257
751.89138,6041019.960727064
753.0830171,6041294.731642417
754.2785752999999,6041196.609560045
755.4780638,6040896.320479778
756.6814917,6041697.931365322
757.8888678999999,6041314.892698192
759.1002014999999,6041291.76002809
760.3155009,6041289.917748722
761.5347749,6036780.657062923
762.7580318,6023964.05980649
763.98528,5997712.657800937
765.2165276000001,5955951.308974412
766.4517825,5895347.040713949
767.6910527000001,5813382.031961722
768.9343458999999,5705559.672415217
770.1816697,5569875.59638177
771.4330313999999,5410181.127787641
772.6884382999999,5231843.763107789
773.9478975,5039085.463048446
775.211416,4832980.524139859
776.4790005,4616379.994471286
777.7506578,4391418.445752092
779.0263942,4162201.13336868
780.3062162,3932472.826492075
781.5901297,3704004.682353642
782.8781409,3478031.841765556
784.1702554999999,3257889.636634962
785.4664793,3047456.7490209923
786.7668176,2849790.805837604
788.0712758,2667880.449633716
789.3798591,2503522.8423466543
790.6925722999999,2356380.8811159288
792.0094204,2226130.71682236
793.3304079,2110622.710441304
794.6555392000001,2007214.1856742024
795.9848187000001,1913150.76315576
797.3182504,1825846.586434492
798.6558382999999,1742977.564362195
799.9975861,1663641.2775876955
801.3434973,1585741.904297726
802.6935752999999,1510419.1496726065
804.0478232999999,1437564.072187647
805.4062443,1367628.7720231244
806.7688411,1301695.3845820487
808.1356164,1240120.060906805
809.5065726,1183657.899297768
810.881712,1132334.1536698125
812.2610367000001,1085876.9113334347
813.6445485,1043587.3167137622
815.0322493,1004697.6743276272
816.4241404,968409.006576656
817.8202233,933318.2401410504
819.2204991,899116.5702209264
820.6249687999999,864897.1098753907
822.0336331,830232.955694159
823.4464925999999,794968.3611602952
824.8635477000001,759564.773113662
826.2847987,724118.5188902372
827.7102456,689123.515936417
829.1398882,655092.694732433
830.5737261,622111.7128145909
832.0117589,590517.13129382
833.4539857000001,560695.1867076791
834.9004057999999,532372.5912337779
836.3510179,505560.8878744025
837.8058209,479851.1261874744
839.2648132999999,455164.5877465536
840.7279934000001,431060.8606945975
842.1953594,407389.4142823333
843.6669092,384107.6578465593
845.1426408,361062.00322486064
846.6225517000001,338163.1508206549
848.1066392999999,315524.3289994862
849.5949009999999,293031.8247583148
851.0873337999999,271018.12152723875
852.5839347000001,249467.1316309073
854.0847002999999,228473.33789758905
855.5896273,208273.924826504
857.0987119999999,188741.7572744613
858.6119507000001,170146.76381401625
860.1293393999999,152510.40892807208
861.650874,136164.089540954
863.1765502000001,120960.25721488072
864.7063635,107014.17990464352
866.2403094,94338.80468785512
867.778383,82941.22315808732
869.3205793999999,72875.05904464095
870.8668935000001,63972.42718596479
872.4173199999999,56125.52867552271
873.9718536,49276.025414478776
875.5304886,43293.759152407234
877.0932193,38158.80559640124
878.6600399,33686.803771548395
880.2309443,29739.35129457298
881.8059264000001,26120.05528725268
883.3849798,22804.046260033087
884.9680981,19749.757825731333
886.5552747000002,16862.142316048292
888.1465029,14146.787363960331
889.7417757000001,11569.155556185571
891.3410862,9090.57184702946
892.9444273,6825.763449366958
894.5517916000001,4938.185893382236
896.1631719000001,3421.853088742012
897.7785605,2209.524925941165
899.3979498,1303.306992236457
901.0213321,660.9184241964713
902.6486995,256.61736409407644
904.280044,73.1600683633893
905.9153575,34.8168960149347
907.5546319,13.697765457150387
909.1978586,4.806466342541204
910.8450295,-3.375389010866936
912.4961358,-1.945838213316483
914.1511691,2.143651113792037
915.8101205,-5.588724546315235
917.4729813,-0.0847166052511163
919.1397426,-3.16334733574574
920.8103953,0.4415389257802514
922.4849303,4.762325317972104
924.1633386,0.3367390488550703
925.8456109,-2.954393976771409
927.5317378,1.1213101835771502
929.22171,-1.1784167152442042
930.9155179,-0.1959820145603092
932.6131521,2.623685655736
934.3146028,3.508808964553748
936.0198606,-1.4092467872262948
937.7289155,3.357051064217856
939.4417579,-0.1433549982058296
941.1583779,3.4924909085186995
942.8787656,1.7552833197681612
944.6029109,1.0438529115219704
946.3308041,1.61116527028671
948.0624349,-1.6406580822307812
949.7977933,0.0303627546615611
951.5368692,1.0054468414848572
953.2796523,2.8825024563870287
955.0261327,2.038386217692225
956.7762999,-0.9961022088620024
958.5301437,0.3059147389799099
960.2876539,-0.9832630871108788
962.0488201,-2.0465408019560334
963.813632,-3.145091001415989
965.5820793,-1.6500203217407448
967.3541517,-3.931627784697047
969.1298386,2.105018682888055
970.9091298,1.7033514814049606
972.6920149,-2.722886210281976
974.4784835,-0.4818640940231268
976.2685251,-0.3512474515183997
978.0621293,-4.374340339645181
979.8592859,-0.1795326001418748
981.6599843,1.1326973448076738
983.4642142,-1.3699780389486216
985.2719651,1.4194941617328218
987.0832269,-2.0340671427426784
988.897989,0.5951808195257647
990.7162412,0.8251880571268331
992.5379731,0.5697323218961414
994.3631745,-0.1305353913543167
996.191835,-2.5234487474089846
998.0239445,-1.4046168974828863
999.8594926,-1.721517714247634
1001.698469,0.1940873766338494
1003.540864,-2.4828015120146354
1005.386668,-0.2560380296789093
1007.235869,-1.0135027700346122
1009.088458,-1.3882057339090028
1010.944426,-1.4595044843212577
1012.803762,2.695458672122457
1014.666456,-1.7623914860927488
1016.532498,3.563393467847685
1018.401878,0.1326549887647255
1020.274588,2.036567084308109
1022.150616,-4.73185969603898
1024.029953,-1.7019446622146523
1025.912591,-1.3569396311604591
1027.798518,-1.7565954216705633
1029.687726,-0.98573078831702
1031.580205,0.4841937252135517
1033.475945,0.8186167813122637
1035.3749380000002,2.5893260434548018
1037.277175,1.538102537464364
1039.182645,-2.0127188922791954
1041.09134,2.6250894347966467
1043.003251,0.2137404881779373
1044.918368,-0.0573575810121391
1046.836683,0.7728066703273068
1048.758188,3.079024708981095
1050.682872,1.7863592040068756
1052.610728,-0.9875552316154448
1054.541747,0.8450681541709223
1056.4759210000002,0.5606905164531844
1058.41324,2.214747155831732
1060.353697,-0.1533507103623259
1062.297282,-3.1936625878301363
1064.243989,-6.004355355014276
1066.193809,1.6975392031795646
1068.146734,-1.8391697537208151
1070.102755,-1.0996296138543131
1072.061865,0.8926713113443641
1074.024056,2.2107648134886464
1075.989321,-2.4650492132498067
1077.957651,0.1139664012951578
1079.92904,-0.1832930190834896
1081.9034800000002,-0.0468904277091718
1083.880963,0.5263171524006843
1085.861482,-1.851421895764164
1087.8450300000002,-6.139452158509519
1089.8316,1.0452978241809137
1091.821185,0.6195830011674871
1093.8137789999998,-1.4805380120059908
1095.809373,1.2906043979323651
1097.807962,2.1492273529488672
1099.809539,-3.3220401098019128
1101.814098,-1.537096291258454
1103.821631,0.0079066317020363
1105.832134,-2.1531000536644527
1107.845599,-0.7926893699795251
1109.86202,2.503761549973071
1111.881392,-0.6177094560758585
1113.903708,0.3290869249148223
1115.928963,0.5084663976066376
1117.95715,-3.21678856285876
1119.988266,8.169563144433084
