wave,flux
306.2504509,374.3500071925846
306.5604242,523.0712295077003
306.871524,689.0338288315158
307.18375710000004,883.4265729392868
307.4971302,1101.2238082642737
307.8116501,1336.159370399092
308.1273236,1439.5414051584314
308.4441577,1560.8820052641129
308.7621594,1693.682660737092
309.0813356,1848.6644605928311
309.4016935,2014.4261734470692
309.7232403,2189.4046452553694
310.04598300000004,2374.553663927622
310.369929,2556.256801771885
310.6950856,2752.6261143143083
311.0214601,2929.497054800589
311.34906010000003,3104.066407969937
311.6778931,3279.4587227446177
312.0079665,3452.755065345153
312.33928810000003,3614.348196123981
312.6718655,3781.2600828935792
313.00570639999995,3953.904170318544
313.3408189,4117.5853488125
313.6772106,4279.542202137235
314.0148896,4463.2460871476005
314.3538639,4639.8355908766325
314.6941415,4820.4802299925095
315.0357308,5011.550154971964
315.37863980000003,5210.715463199866
315.7228769,5415.059323967286
316.0684504,5634.076850286533
316.4153688,5869.832473666721
316.76364069999994,6113.263151038404
317.1132746,6360.862207613614
317.4642791,6641.304231362987
317.8166631,6931.708065267108
318.1704352,7234.500649212056
318.5256045,7541.797597759069
318.8821799,7867.099306204119
319.2401704,8204.728657710832
319.5995851,8553.254014626398
319.96043330000003,8918.342783601916
320.3227243,9294.348436426446
320.6864673,9678.3903652574
321.0516719,10063.492987553702
321.4183476,10458.86243689893
321.786504,10864.05159225788
322.1561508,11270.451082785485
322.5272977,11703.55787297123
322.8999548,12131.513181458437
323.2741319,12581.1854003874
323.649839,13074.335242927087
324.0270864,13612.728214358262
324.40588419999995,14195.633869112777
324.7862428,14868.90067322413
325.16817260000005,15593.235690789985
325.5516841,16437.807973602685
325.9367879,17389.240491274708
326.32349480000005,18468.76275697648
326.7118154,19712.11597763018
327.1017607,21071.13536552536
327.4933418,22611.69205450601
327.88656960000003,24343.86602444316
328.2814555,26303.760870229708
328.6780106,28446.43645114205
329.0762465,30833.863395732387
329.47617460000004,33509.437122665426
329.8778065,36450.79096401452
330.281154,39694.299734078566
330.6862289,43394.166274595314
331.0930432,47491.57674547337
331.5016088,52113.97509645001
331.911938,57320.504932395095
332.32404310000004,63153.453955055695
332.7379364,69772.98805867342
333.1536305,77161.09135496433
333.571138,85326.77298757284
333.9904716,94380.02720978728
334.4116443,104201.52899157228
334.834669,114756.45432296953
335.2595588,125838.48717663894
335.686327,137300.4200571397
336.114987,148852.17057763613
336.5455522,160284.5343025333
336.9780363,171232.31714911095
337.41245310000005,181542.0488333281
337.8488164,190878.41961997093
338.28714019999995,199149.2183630566
338.7274388,206368.40398116177
339.1697264,212569.08601393428
339.6140175,217941.3768047196
340.06032660000005,222814.7612103759
340.5086685,227647.86007293192
340.959058,232813.5204325831
341.4115102,238931.49987510985
341.8660403,246524.4620614773
342.32266339999995,256062.6628577237
342.7813952,268053.1889416404
343.24225110000003,282735.8279872315
343.70524710000007,300349.21118152264
344.17039889999995,320789.81716304924
344.6377228,343896.3963242918
345.1072349,369115.49681044376
345.5789517,395812.6332985136
346.0528897,423247.8069346745
346.5290657,450284.6468829475
347.0074967,475995.9591371175
347.48819960000003,499285.5327229825
347.9711917,519411.1444204802
348.45649060000005,535525.6259660114
348.9441137,547243.9995164417
349.434079,554455.7539005363
349.9264043,557220.8896580241
350.4211078,555860.983109161
350.9182079,550999.7196410397
351.4177232,543230.1799838651
351.9196722,533502.4203811535
352.42407410000004,522472.3680716342
352.9309478,510693.880911859
353.4403127,499025.8505244149
353.95218839999995,487753.6863757968
354.4665945,477478.85622954
354.983551,468362.4024041992
355.503078,460684.4450426207
356.025196,454607.025643778
356.5499253,450230.22688788455
357.077287,447919.2693798397
357.6073018,447613.19695980375
358.1399912,449404.4624559744
358.6753765,453194.4843940816
359.2134795,459166.60739445314
359.754322,467128.7423514554
360.2979263,477092.4641109789
360.8443147,488722.2823506126
361.3935098,501774.5153895575
361.9455346,515892.048466274
362.5004122,530693.0354356933
363.058166,545708.9075333208
363.61881960000005,560530.8256839528
364.1823969,574622.9284616164
364.7489221,587674.1605674208
365.3184196,599299.6049916864
365.8909141,609126.983241421
366.4664305,616941.2777848382
367.0449943,622791.7475504909
367.6266307,626702.2751927301
368.2113658,628515.5484871848
368.7992255,628439.1588239886
369.3902363,626620.2874497364
369.9844249,623246.167120578
370.5818182,618574.5327545761
371.1824436,612693.0669809752
371.7863286000001,606285.4450480279
372.3935012,599740.3107532993
373.0039896,593689.9455357968
373.6178223,588851.5195438836
374.2350283,585908.5041492422
374.8556368,585774.8486612196
375.4796772,589148.2783563144
376.1071796,596098.0105868585
376.7381741,607205.0303293528
377.3726913,622281.4830898771
378.0107622,640814.27575072
378.652418,662010.479620878
379.2976904,685011.90764059
379.9466115,708666.9405635863
380.5992136,731986.3275732469
381.2555296,753968.3404599858
381.9155926,773637.3076181016
382.5794362,790654.4777079555
383.2470943,805010.9585942947
383.9186014,816764.8373840769
384.5939922,826471.3242152919
385.2733019,834738.9318494898
385.9565661,842238.2107828434
386.6438209,849789.0181388527
387.3351027,858500.1023904636
388.0304484,869052.2985171677
388.7298955,881734.8392567124
389.4334817,897064.9997069424
390.1412452,915583.2016573912
390.853225,937033.3215427428
391.56946,961378.2838411884
392.2899901,987953.7667843176
393.0148555,1016163.5080831356
393.7440968,1044550.606780834
394.4777551,1073369.5558722718
395.2158722,1102116.6532522128
395.9584903,1129554.1185501108
396.7056521,1156050.5610881874
397.457401,1182530.7710896032
398.2137806,1209958.82083156
398.9748353,1239910.5099768927
399.7406101,1273519.7257147836
400.5111505,1312120.2976511486
401.2865024,1356095.208187812
402.0667126,1405854.611779463
402.8518283,1461455.6380988269
403.6418973,1520937.8838512923
404.436968,1583130.358653371
405.2370896,1645439.4705880447
406.0423117,1706370.4577652689
406.8526847,1763762.768705644
407.66825960000006,1816497.4183711295
408.4890879,1863960.8562615523
409.3152221,1905631.655991485
410.1467152,1942032.577299298
410.9836208,1973974.3262786444
411.8259934,2001879.9914279853
412.673888,2027187.623075204
413.5273605,2050484.940514073
414.38646760000006,2073037.220074539
415.2512664,2096367.97793584
416.1218152,2121131.638410401
416.9981727,2149560.400417529
417.8803987,2183235.952797204
418.7685535,2223985.7640790856
419.6626985,2274230.8291186183
420.5628957,2336229.217599313
421.4692081,2411145.1529596243
422.3816994,2501348.288325408
423.3004343,2607812.5860826126
424.2254783,2730777.664204425
425.1568978,2869486.585531431
426.0947602,3024215.936543217
427.0391337,3191261.6904835645
427.9900874,3368641.68245522
428.9476917,3551922.176478363
429.9120175,3736691.473189066
430.8831369,3916307.330395719
431.8611232,4085777.1838647374
432.8460504,4238916.224614572
433.8379937,4371687.679688735
434.8370293,4480599.258353595
435.8432345,4564090.785578981
436.8566878,4623525.3474141685
437.8774686,4662161.0592189785
438.9056575,4685450.951621986
439.9413364,4700262.416318098
440.9845882,4715214.99016474
442.035497,4736902.74883203
443.0941482,4772732.830538747
444.1606283,4828937.790841868
445.23502520000005,4907677.746762479
446.317428,5008305.8098185705
447.407927,5126543.277951359
448.5066141,5256856.958118058
449.6135822,5393500.211549733
450.7289258,5528618.414759713
451.85274060000006,5654615.516203376
452.9851239,5765957.824185865
454.1261744,5854882.553589622
455.2759921,5923614.302046362
456.4346788,5973918.515574815
457.6023374,6008117.346840046
458.7790727,6028686.150444162
459.9649909,6037944.7513724025
461.1601998,6041807.934549205
462.364809,6041260.693591896
463.5789295,6041325.479369807
464.8026741000001,6041769.736055652
466.0361575,6041388.349087885
467.2794956999999,6041164.210905887
468.5328070000001,6041342.64195835
469.7962111000001,6041562.18703804
471.0698299,6040993.620897839
472.3537868,6041402.611681502
473.6482074,6041742.683991592
474.9532192,6041553.811433418
476.2689517,6041441.258564592
477.5955362,6041459.4519787375
478.93310639999993,6041162.684151023
480.2817979,6041545.721584599
481.6417484,6041110.434271687
483.01309800000007,6041405.2533936575
484.3959889,6041600.41803012
485.7905654,6041545.831412211
487.1969743,6041202.100974479
488.6153648,6041382.722687959
490.0458884,6040980.144472312
491.488699,6041763.670735423
492.943953,6041768.075996732
494.4118094,6041539.778214023
495.8924299,6041336.474078437
497.3859785,6040998.941661535
498.8926222,6041526.982914401
500.4125306,6041473.146747368
501.9458762,6041725.879007893
503.4928341,6041351.286518792
505.0535827,6041516.6066477485
506.628303,6041197.552042599
508.2171791999999,6041134.704585858
509.8203986,6041686.744712318
511.4381515,6041329.815812379
513.0706316000001,6041557.291455995
514.7180356,6041411.878888025
516.3805639,6041589.545259803
518.0584200000001,6041106.580758548
519.7518110000001,6041714.514991911
521.4609475999999,6041471.532870865
523.186044,6041876.828210724
524.927318,6041367.8549427735
526.6849915,6041141.955782825
528.45929,6041447.270144031
530.2504428000001,6041473.122013547
532.0586836,6041045.255410778
533.8842498,6041377.675129289
535.7273833,6041672.70151611
537.5883299,6040862.122797762
539.46734,6041873.94226549
541.3646685,6041865.64286237
543.2805745000001,6041318.721508493
545.2153222000001,6041533.143119226
547.1691801,6041189.371014744
549.1424218999999,6041654.727425394
551.1353259,6041264.568329855
553.1481756000001,6041524.857208173
555.1812597,6040980.158440856
557.2348721,6041166.803978053
559.3093121,6041470.43575181
561.4048845,6041794.820031525
563.5218996,6041423.623925878
565.6606737000001,6041298.901395815
567.8215287,6041390.584749027
570.0047927,6041603.686400793
572.2107997,6041631.05216965
574.4398902,6041878.46529394
576.692411,6041228.92539752
578.9687155,6041283.201281786
581.2691637,6041383.259686087
583.5941226,6041605.607627295
585.943966,6041182.132594558
588.3190752,6041334.051894742
590.7198384999999,6041550.378778045
593.1466518,6041503.730897098
595.5999188999999,6041471.65415922
598.0800512,6041533.854549067
600.5874682,6041303.183290263
603.1225977000001,6041848.991230547
605.6858758999999,6041315.870243332
608.2777476,6041954.006196945
610.8986664,6040699.673885998
613.549095,6041357.508614978
616.2295054,6041680.552266642
618.940379,6042333.78071024
621.6822068,6040691.922747601
624.4554901,6040510.717894767
627.2607402000001,6040386.243214856
630.0984786,6042837.339093351
632.9692378999999,6042429.247638969
635.8735614,6042489.963911682
638.8120038,6041439.061728967
641.7851312999999,6041462.755015803
644.7935217999999,6041824.556763917
647.8377654,6039561.701440978
650.9184646000001,6041703.500696513
654.0362346,6042483.15714048
657.1917038,6041388.482536378
660.3855139,6041312.268475731
663.6183202999999,6043231.067568135
666.8907926,6039785.854719778
670.2036149,6042963.713013138
673.557486,6040657.53959409
676.9531202000001,6042626.280252002
680.3912472999999,6041122.484353202
683.8726131,6039253.285634104
687.3979803,6042747.369965913
688.1340083,6040951.0301357685
689.1142341,6041551.977994118
690.097676,6041295.175980351
690.9681281000001,6040948.228270322
691.0843474999999,6041496.867909148
692.0742622,6041330.458684293
693.0674334,6041360.913656178
694.0638748,6041843.168072684
695.0635996,6041188.541090461
696.0666212,6041507.856637272
697.0729531000001,6041130.160638803
698.0826086,6041226.637563645
699.0956008999999,6041517.02129734
700.1119432999999,6041433.962947777
701.1316491,6041447.719601933
702.1547314,6041815.003225118
703.1812034,6040981.717873668
704.2110782000001,6040967.6351438975
705.2443688999999,6041738.733177078
706.2810885,6041548.596795866
707.3212499,6041271.804002987
708.3648661000001,6041728.899340636
709.41195,6041584.068917628
710.4625143999999,6041240.915375478
711.5165721,6041437.214353087
712.5741357,6041658.888258887
713.6352181,6041853.817453749
714.6998317000001,6041671.885354993
715.7679891,6041130.504671548
716.8397027999999,6041436.080231153
717.9149852,6041318.773342314
718.9938487000001,6041110.558645267
720.0763055,6041722.756696959
721.162368,6041509.564044408
722.2520481,6041873.071762422
723.3453581,6041526.665576748
724.4423098,6041324.880358534
725.5429153,6041484.095598589
726.6471863,6041026.719533288
727.7551346,6041408.608434394
728.866772,6041784.03417271
729.9821099,6041725.843732835
731.1011599,6041513.788835146
732.2239335,6041210.168393136
733.3504419,6041645.331585477
734.4806963999999,6040885.036336835
735.6147081,6041689.546074187
736.7524882,6041305.1218696935
737.8940474,6041200.265325408
739.0393967,6041800.426085106
740.1885467999999,6041282.587589228
741.3415084,6041523.938211418
742.498292,6041349.3987891525
743.658908,6041682.543470183
744.8233667999999,6041026.177558086
745.9916785,6041609.620689474
747.1638532000001,6041236.894622227
748.3399009,6041267.287163357
749.5198315,6040997.277771267
750.7036546,6041894.717999257
751.89138,6041019.960727064
753.0830171,6041294.731642417
754.2785752999999,6041196.609560045
755.4780638,6040896.320479778
756.6814917,6041697.931365322
757.8888678999999,6041314.892698192
759.1002014999999,6041291.76002809
760.3155009,6041289.917748722
761.5347749,6036780.657062923
762.7580318,6023964.05980649
763.98528,5997712.657800937
765.2165276000001,5955951.308974412
766.4517825,5895347.040713949
767.6910527000001,5813382.031961722
768.9343458999999,5705559.672415217
770.1816697,5569875.59638177
771.4330313999999,5410181.127787641
772.6884382999999,5231843.763107789
773.9478975,5039085.463048446
775.211416,4832980.524139859
776.4790005,4616379.994471286
777.7506578,4391418.445752092
779.0263942,4162201.13336868
780.3062162,3932472.826492075
781.5901297,3704004.682353642
782.8781409,3478031.841765556
784.1702554999999,3257889.636634962
785.4664793,3047456.7490209923
786.7668176,2849790.805837604
788.0712758,2667880.449633716
789.3798591,2503522.8423466543
790.6925722999999,2356380.8811159288
792.0094204,2226130.71682236
793.3304079,2110622.710441304
794.6555392000001,2007214.1856742024
795.9848187000001,1913150.76315576
797.3182504,1825846.586434492
798.6558382999999,1742977.564362195
799.9975861,1663641.2775876955
801.3434973,1585741.904297726
802.6935752999999,1510419.1496726065
804.0478232999999,1437564.072187647
805.4062443,1367628.7720231244
806.7688411,1301695.3845820487
808.1356164,1240120.060906805
809.5065726,1183657.899297768
810.881712,1132334.1536698125
812.2610367000001,1085876.9113334347
813.6445485,1043587.3167137622
815.0322493,1004697.6743276272
816.4241404,968409.006576656
817.8202233,933318.2401410504
819.2204991,899116.5702209264
820.6249687999999,864897.1098753907
822.0336331,830232.955694159
823.4464925999999,794968.3611602952
824.8635477000001,759564.773113662
826.2847987,724118.5188902372
827.7102456,689123.515936417
829.1398882,655092.694732433
830.5737261,622111.7128145909
832.0117589,590517.13129382
833.4539857000001,560695.1867076791
834.9004057999999,532372.5912337779
836.3510179,505560.8878744025
837.8058209,479851.1261874744
839.2648132999999,455164.5877465536
840.7279934000001,431060.8606945975
842.1953594,407389.4142823333
843.6669092,384107.6578465593
845.1426408,361062.00322486064
846.6225517000001,338163.1508206549
848.1066392999999,315524.3289994862
849.5949009999999,293031.8247583148
851.0873337999999,271018.12152723875
852.5839347000001,249467.1316309073
854.0847002999999,228473.33789758905
855.5896273,208273.924826504
857.0987119999999,188741.7572744613
858.6119507000001,170146.76381401625
860.1293393999999,152510.40892807208
861.650874,136164.089540954
863.1765502000001,120960.25721488072
864.7063635,107014.17990464352
866.2403094,94338.80468785512
867.778383,82941.22315808732
869.3205793999999,72875.05904464095
870.8668935000001,63972.42718596479
872.4173199999999,56125.52867552271
873.9718536,49276.025414478776
875.5304886,43293.759152407234
877.0932193,38158.80559640124
878.6600399,33686.803771548395
880.2309443,29739.35129457298
881.8059264000001,26120.05528725268
883.3849798,22804.046260033087
884.9680981,19749.757825731333
886.5552747000002,16862.142316048292
888.1465029,14146.787363960331
889.7417757000001,11569.155556185571
891.3410862,9090.57184702946
892.9444273,6825.763449366958
894.5517916000001,4938.185893382236
896.1631719000001,3421.853088742012
897.7785605,2209.524925941165
899.3979498,1303.306992236457
901.0213321,660.9184241964713
902.6486995,256.61736409407644
904.280044,73.1600683633893
905.9153575,34.8168960149347
907.5546319,13.697765457150387
909.1978586,4.806466342541204
910.8450295,-3.375389010866936
912.4961358,-1.945838213316483
914.1511691,2.143651113792037
915.8101205,-5.588724546315235
917.4729813,-0.0847166052511163
919.1397426,-3.16334733574574
920.8103953,0.4415389257802514
922.4849303,4.762325317972104
924.1633386,0.3367390488550703
925.8456109,-2.954393976771409
927.5317378,1.1213101835771502
929.22171,-1.1784167152442042
930.9155179,-0.1959820145603092
932.6131521,2.623685655736
934.3146028,3.508808964553748
936.0198606,-1.4092467872262948
937.7289155,3.357051064217856
939.4417579,-0.1433549982058296
941.1583779,3.4924909085186995
942.8787656,1.7552833197681612
944.6029109,1.0438529115219704
946.3308041,1.61116527028671
948.0624349,-1.6406580822307812
949.7977933,0.0303627546615611
951.5368692,1.0054468414848572
953.2796523,2.8825024563870287
955.0261327,2.038386217692225
956.7762999,-0.9961022088620024
958.5301437,0.3059147389799099
960.2876539,-0.9832630871108788
962.0488201,-2.0465408019560334
963.813632,-3.145091001415989
965.5820793,-1.6500203217407448
967.3541517,-3.931627784697047
969.1298386,2.105018682888055
970.9091298,1.7033514814049606
972.6920149,-2.722886210281976
974.4784835,-0.4818640940231268
976.2685251,-0.3512474515183997
978.0621293,-4.374340339645181
979.8592859,-0.1795326001418748
981.6599843,1.1326973448076738
983.4642142,-1.3699780389486216
985.2719651,1.4194941617328218
987.0832269,-2.0340671427426784
988.897989,0.5951808195257647
990.7162412,0.8251880571268331
992.5379731,0.5697323218961414
994.3631745,-0.1305353913543167
996.191835,-2.5234487474089846
998.0239445,-1.4046168974828863
999.8594926,-1.721517714247634
1001.698469,0.1940873766338494
1003.540864,-2.4828015120146354
1005.386668,-0.2560380296789093
1007.235869,-1.0135027700346122
1009.088458,-1.3882057339090028
1010.944426,-1.4595044843212577
1012.803762,2.695458672122457
1014.666456,-1.7623914860927488
1016.532498,3.563393467847685
1018.401878,0.1326549887647255
1020.274588,2.036567084308109
1022.150616,-4.73185969603898
1024.029953,-1.7019446622146523
1025.912591,-1.3569396311604591
1027.798518,-1.7565954216705633
1029.687726,-0.98573078831702
1031.580205,0.4841937252135517
1033.475945,0.8186167813122637
1035.3749380000002,2.5893260434548018
1037.277175,1.538102537464364
1039.182645,-2.0127188922791954
1041.09134,2.6250894347966467
1043.003251,0.2137404881779373
1044.918368,-0.0573575810121391
1046.836683,0.7728066703273068
1048.758188,3.079024708981095
1050.682872,1.7863592040068756
1052.610728,-0.9875552316154448
1054.541747,0.8450681541709223
1056.4759210000002,0.5606905164531844
1058.41324,2.214747155831732
1060.353697,-0.1533507103623259
1062.297282,-3.1936625878301363
1064.243989,-6.004355355014276
1066.193809,1.6975392031795646
1068.146734,-1.8391697537208151
1070.102755,-1.0996296138543131
1072.061865,0.8926713113443641
1074.024056,2.2107648134886464
1075.989321,-2.4650492132498067
1077.957651,0.1139664012951578
1079.92904,-0.1832930190834896
1081.9034800000002,-0.0468904277091718
1083.880963,0.5263171524006843
1085.861482,-1.851421895764164
1087.8450300000002,-6.139452158509519
