wave,flux
306.2504509,611.939762855565
306.5604242,862.4776335139461
306.871524,1144.8449317388622
307.18375710000004,1463.2120252722643
307.4971302,1854.5441545802869
307.8116501,2319.7237474864905
308.1273236,2506.1721342981728
308.4441577,2702.600465681741
308.7621594,2916.6022921143103
309.0813356,3153.714281372354
309.4016935,3385.3021279956183
309.7232403,3620.7653015914098
310.04598300000004,3855.356666412069
310.369929,4095.4332504043578
310.6950856,4348.6062203184365
311.0214601,4602.695925363803
311.34906010000003,4871.244029993861
311.6778931,5165.314314797608
312.0079665,5485.576506955629
312.33928810000003,5825.146125842851
312.6718655,6215.391294327746
313.00570639999995,6618.762540290379
313.3408189,7043.870698738752
313.6772106,7474.236878063647
314.0148896,7934.061184570508
314.3538639,8414.08152632014
314.6941415,8908.233431262648
315.0357308,9411.929699292245
315.37863980000003,9930.57044454325
315.7228769,10467.075619841507
316.0684504,11026.02026565222
316.4153688,11583.601920119228
316.76364069999994,12155.870209420009
317.1132746,12684.275255336786
317.4642791,13224.659948638857
317.8166631,13745.280029379146
318.1704352,14246.333689252806
318.5256045,14729.405291497069
318.8821799,15211.733804881098
319.2401704,15663.150989671778
319.5995851,16131.7891420205
319.96043330000003,16611.07673634196
320.3227243,17113.550499187484
320.6864673,17627.755976402328
321.0516719,18162.402531283096
321.4183476,18742.522460195112
321.786504,19364.647929072955
322.1561508,20057.067849882693
322.5272977,20830.80426757357
322.8999548,21720.65277992711
323.2741319,22687.646869846987
323.649839,23765.785270963544
324.0270864,25020.657223011283
324.40588419999995,26434.15191357762
324.7862428,28078.710953005728
325.16817260000005,30029.031631799688
325.5516841,32340.69328912457
325.9367879,35083.885136826924
326.32349480000005,38293.778427004
326.7118154,42189.36054918253
327.1017607,46673.30588083157
327.4933418,51982.35878198058
327.88656960000003,58089.290074263954
328.2814555,64987.72753188358
328.6780106,72704.17580802027
329.0762465,81185.60774943269
329.47617460000004,90393.60067255932
329.8778065,100063.58185627358
330.281154,110113.74181033016
330.6862289,120282.28109896598
331.0930432,130150.7872431348
331.5016088,139567.73642044113
331.911938,148155.39081138888
332.32404310000004,155722.0734486828
332.7379364,162145.88661364914
333.1536305,167210.00328969955
333.571138,171137.1618014118
333.9904716,174061.3306432401
334.4116443,176314.72650553606
334.834669,178373.56571278788
335.2595588,180739.4906928893
335.686327,183860.06555480312
336.114987,188294.6943254784
336.5455522,194367.3118652065
336.9780363,202343.43347627524
337.41245310000005,212307.3398313593
337.8488164,224229.2959130309
338.28714019999995,238059.7522340828
338.7274388,253474.48312255516
339.1697264,270251.7894576549
339.6140175,288346.58948771603
340.06032660000005,307450.1379577461
340.5086685,327651.0788719207
340.959058,349158.6628931509
341.4115102,372023.57967469
341.8660403,396476.52846764633
342.32266339999995,422856.2697334139
342.7813952,451268.6957994858
343.24225110000003,481850.2589635761
343.70524710000007,514273.6427340155
344.17039889999995,548294.1722265386
344.6377228,583468.532169978
345.1072349,619239.6075230149
345.5789517,654810.0412150581
346.0528897,689840.9564392151
346.5290657,723395.609397252
347.0074967,755366.5982668159
347.48819960000003,785728.4847100319
347.9711917,814650.0795487395
348.45649060000005,842188.4280387039
348.9441137,869336.959784597
349.434079,896476.1456279374
349.9264043,924160.02145112
350.4211078,952982.5213575498
350.9182079,983084.0213495248
351.4177232,1014342.1413609852
351.9196722,1046488.5022372882
352.42407410000004,1078837.6528501934
352.9309478,1110816.680909024
353.4403127,1141382.6155723152
353.95218839999995,1169601.9967362834
354.4665945,1194551.2049569676
354.983551,1215047.1072321571
355.503078,1230717.3024828352
356.025196,1240408.0738370595
356.5499253,1243579.030092173
357.077287,1239912.3742502178
357.6073018,1228954.9806481074
358.1399912,1210791.742020248
358.6753765,1185634.4234244423
359.2134795,1154284.592098008
359.754322,1117566.9596171086
360.2979263,1076876.3870829938
360.8443147,1033957.9556797864
361.3935098,990528.3928827804
361.9455346,948029.6943310336
362.5004122,908843.1172480033
363.058166,874088.7615404008
363.61881960000005,844880.3813160795
364.1823969,822026.1034669998
364.7489221,805566.4463680212
365.3184196,795957.7487509148
365.8909141,792271.7114151717
366.4664305,794154.869675555
367.0449943,800718.7130280702
367.6266307,811138.3643210891
368.2113658,824571.397960418
368.7992255,840224.916250654
369.3902363,857602.4163195417
369.9844249,876448.1719669147
370.5818182,896184.5815066416
371.1824436,916847.9404666432
371.7863286000001,938317.8990097846
372.3935012,960415.164989198
373.0039896,983141.0333212912
373.6178223,1006142.9096563509
374.2350283,1028941.7675167888
374.8556368,1051368.0396541
375.4796772,1072519.3362921504
376.1071796,1091940.909079477
376.7381741,1109174.9056888295
377.3726913,1124000.7139728814
378.0107622,1136045.688026555
378.652418,1145646.7026891566
379.2976904,1153139.65472353
379.9466115,1159235.0940740737
380.5992136,1164817.167698807
381.2555296,1170830.68408243
381.9155926,1178621.9272970988
382.5794362,1188885.786471072
383.2470943,1202495.218188265
383.9186014,1219923.5213590583
384.5939922,1241521.1445894125
385.2733019,1267281.6560612177
385.9565661,1296904.781154407
386.6438209,1329474.3354637206
387.3351027,1363820.9725995162
388.0304484,1398696.3740599093
388.7298955,1432782.3609490818
389.4334817,1464592.5259706387
390.1412452,1493318.584076459
390.853225,1518685.024571699
391.56946,1540474.1460207202
392.2899901,1559678.9596174704
393.0148555,1578126.63868095
393.7440968,1597590.8412315382
394.4777551,1620466.871269571
395.2158722,1650021.6053158322
395.9584903,1688137.194926546
396.7056521,1736844.5693671682
397.457401,1797788.2907451575
398.2137806,1870875.0025726813
398.9748353,1955902.6978514616
399.7406101,2051338.670258012
400.5111505,2154438.362506084
401.2865024,2261983.089147495
402.0667126,2370669.919317766
402.8518283,2476428.584968838
403.6418973,2575358.400716084
404.436968,2665746.866915124
405.2370896,2744490.1407164955
406.0423117,2810676.5973646976
406.8526847,2864888.6999405064
407.66825960000006,2908890.2483284865
408.4890879,2945469.117774873
409.3152221,2977904.420106884
410.1467152,3010807.3062350964
410.9836208,3048404.331074125
411.8259934,3094339.993227317
412.673888,3151430.618383312
413.5273605,3220632.526384077
414.38646760000006,3302092.0084431274
415.2512664,3393872.811974605
416.1218152,3492100.7307859627
416.9981727,3593543.6118530333
417.8803987,3692234.188196822
418.7685535,3784606.85367306
419.6626985,3866806.615763444
420.5628957,3937624.8651011344
421.4692081,3997550.891892322
422.3816994,4048923.080192202
423.3004343,4095799.451608925
424.2254783,4144503.964945301
425.1568978,4201627.678376591
426.0947602,4273000.867845117
427.0391337,4364863.269334078
427.9900874,4478772.040205507
428.9476917,4616422.156840559
429.9120175,4773885.802003567
430.8831369,4945057.782226298
431.8611232,5122718.446542227
432.8460504,5299459.832496877
433.8379937,5466898.997442882
434.8370293,5618155.964700975
435.8432345,5745259.788435514
436.8566878,5845325.932674916
437.8774686,5921563.892630032
438.9056575,5974417.209895999
439.9413364,6008896.787877269
440.9845882,6029151.829796662
442.035497,6038895.001840756
443.0941482,6041358.550382491
444.1606283,6041505.100194703
445.23502520000005,6041031.196288369
446.317428,6041211.069724033
447.407927,6041493.432568965
448.5066141,6041480.325842616
449.6135822,6041723.152387879
450.7289258,6041345.129866506
451.85274060000006,6041535.679346362
452.9851239,6041342.253391013
454.1261744,6041713.660253238
455.2759921,6041803.63660804
456.4346788,6041409.892512838
457.6023374,6041882.96820615
458.7790727,6041292.248255057
459.9649909,6041574.073953932
461.1601998,6041362.72281135
462.364809,6041359.214374628
463.5789295,6041173.008869854
464.8026741000001,6041272.535255245
466.0361575,6041419.20885729
467.2794956999999,6041185.98818712
468.5328070000001,6041602.948693799
469.7962111000001,6041194.717046763
471.0698299,6041242.146071033
472.3537868,6041212.624345159
473.6482074,6041533.203826054
474.9532192,6041367.56435984
476.2689517,6041210.323206417
477.5955362,6041297.424050569
478.93310639999993,6041548.542936778
480.2817979,6041580.586100444
481.6417484,6041584.177123945
483.01309800000007,6041167.818657097
484.3959889,6041741.25765822
485.7905654,6041765.503957925
487.1969743,6041217.813342501
488.6153648,6041444.510070017
490.0458884,6041428.406196463
491.488699,6041769.204554058
492.943953,6041565.784029381
494.4118094,6041525.034458793
495.8924299,6041361.369415888
497.3859785,6041220.785822284
498.8926222,6041611.288803877
500.4125306,6041496.854517
501.9458762,6041346.022509126
503.4928341,6041315.584064875
505.0535827,6041126.597306221
506.628303,6041775.685460973
508.2171791999999,6040786.685612061
509.8203986,6041506.427766292
511.4381515,6041431.468676124
513.0706316000001,6041201.673752973
514.7180356,6041464.655746265
516.3805639,6041577.413364064
518.0584200000001,6041748.52086132
519.7518110000001,6041130.645184928
521.4609475999999,6041158.326932107
523.186044,6041519.124952463
524.927318,6041023.265482415
526.6849915,6041826.851369157
528.45929,6041401.440705103
530.2504428000001,6041509.608995311
532.0586836,6041319.662530351
533.8842498,6040908.755694586
535.7273833,6041814.908926892
537.5883299,6041544.801110757
539.46734,6041612.646162823
541.3646685,6041486.3009689925
543.2805745000001,6041239.373943932
545.2153222000001,6041245.638418747
547.1691801,6041489.647052608
549.1424218999999,6041761.283229855
551.1353259,6041812.783191546
553.1481756000001,6041252.819836631
555.1812597,6041158.00673787
557.2348721,6041438.649606902
559.3093121,6041304.330137975
561.4048845,6041213.860908923
563.5218996,6041417.692067417
565.6606737000001,6041248.186779406
567.8215287,6041084.626282168
570.0047927,6041769.916808961
572.2107997,6041368.763738948
574.4398902,6041222.264078094
576.692411,6040996.594694364
578.9687155,6041187.413614757
581.2691637,6041606.193995908
583.5941226,6041018.873219358
585.943966,6041576.1027426375
588.3190752,6041016.161892923
590.7198384999999,6041202.718764973
593.1466518,6041432.920333716
595.5999188999999,6041675.2647559885
598.0800512,6041366.236618204
600.5874682,6041463.558457987
603.1225977000001,6041821.222170245
605.6858758999999,6041313.38001226
608.2777476,6041652.723432804
610.8986664,6041540.956787575
613.549095,6041519.077930232
616.2295054,6041129.093010777
618.940379,6041567.285996274
621.6822068,6042326.283107268
624.4554901,6042016.680680059
627.2607402000001,6041472.965725417
630.0984786,6041338.348319489
632.9692378999999,6040242.232313676
635.8735614,6040125.044992826
638.8120038,6043408.581814608
641.7851312999999,6040691.296528848
644.7935217999999,6042065.94065565
647.8377654,6039671.996541611
650.9184646000001,6039912.8062874
654.0362346,6043666.524566029
657.1917038,6043102.796928727
660.3855139,6042605.606790397
663.6183202999999,6042747.614080891
665.5380107000001,6041174.928814688
666.4451407,6041789.567108886
666.8907926,6042108.8079844015
667.355159,6041768.990847449
668.2680793,6041025.600701578
669.1839152000001,6041878.621230503
670.1026805,6041536.203329182
670.2036149,6042450.670805049
671.0243889,6041817.049782247
671.949054,6041288.980459927
672.8766895,6041271.116313018
673.557486,6041165.312567677
673.8073092,6041228.570076198
674.7409267,6041021.87285016
675.6775557999999,6041509.762488304
676.6172101,6041406.773123708
677.5599033,6041372.668337625
678.5056492000001,6041317.116322317
679.4544612999999,6041289.512202607
680.4063535,6041134.786884902
681.3613392999999,6041533.216924714
682.3194324,6041266.774412323
683.2806465,6041136.6792547135
684.2449952000001,6041656.735559247
685.2124921,6041453.935218197
686.1831509,6041477.807051958
687.1569850999999,6041447.407197123
688.1340083,6040951.0301357685
689.1142341,6041551.977994118
690.097676,6041295.175980351
691.0843474999999,6041496.867909148
692.0742622,6041330.458684293
693.0674334,6041360.913656178
694.0638748,6041843.168072684
695.0635996,6041188.541090461
696.0666212,6041507.856637272
697.0729531000001,6041130.160638803
698.0826086,6041226.637563645
699.0956008999999,6041517.02129734
700.1119432999999,6041433.962947777
701.1316491,6041447.719601933
702.1547314,6041815.003225118
703.1812034,6040981.717873668
704.2110782000001,6040967.6351438975
705.2443688999999,6041738.733177078
706.2810885,6041548.596795866
707.3212499,6041271.804002987
708.3648661000001,6041728.899340636
709.41195,6041584.068917628
710.4625143999999,6041240.915375478
711.5165721,6041437.214353087
712.5741357,6041658.888258887
713.6352181,6041853.817453749
714.6998317000001,6041671.885354993
715.7679891,6041130.504671548
716.8397027999999,6041436.080231153
717.9149852,6041318.773342314
718.9938487000001,6041110.558645267
720.0763055,6041722.756696959
721.162368,6041509.564044408
722.2520481,6041873.071762422
723.3453581,6041526.665576748
724.4423098,6041324.880358534
725.5429153,6041484.095598589
726.6471863,6041026.719533288
727.7551346,6041408.608434394
728.866772,6041784.03417271
729.9821099,6041725.843732835
731.1011599,6041513.788835146
732.2239335,6041210.168393136
733.3504419,6041645.331585477
734.4806963999999,6040885.036336835
735.6147081,6041689.546074187
736.7524882,6041305.1218696935
737.8940474,6041200.265325408
739.0393967,6041800.426085106
740.1885467999999,6041282.587589228
741.3415084,6041523.938211418
742.498292,6041349.3987891525
743.658908,6041682.543470183
744.8233667999999,6041026.177558086
745.9916785,6041609.620689474
747.1638532000001,6041236.894622227
748.3399009,6041267.287163357
749.5198315,6040997.277771267
750.7036546,6041894.717999257
751.89138,6041019.960727064
753.0830171,6041294.731642417
754.2785752999999,6041196.609560045
755.4780638,6040896.320479778
756.6814917,6041697.931365322
757.8888678999999,6041314.892698192
759.1002014999999,6041291.76002809
760.3155009,6041289.917748722
761.5347749,6036780.657062923
762.7580318,6023964.05980649
763.98528,5997712.657800937
765.2165276000001,5955951.308974412
766.4517825,5895347.040713949
767.6910527000001,5813382.031961722
768.9343458999999,5705559.672415217
770.1816697,5569875.59638177
771.4330313999999,5410181.127787641
772.6884382999999,5231843.763107789
773.9478975,5039085.463048446
775.211416,4832980.524139859
776.4790005,4616379.994471286
777.7506578,4391418.445752092
779.0263942,4162201.13336868
780.3062162,3932472.826492075
781.5901297,3704004.682353642
782.8781409,3478031.841765556
784.1702554999999,3257889.636634962
785.4664793,3047456.7490209923
786.7668176,2849790.805837604
788.0712758,2667880.449633716
789.3798591,2503522.8423466543
790.6925722999999,2356380.8811159288
792.0094204,2226130.71682236
793.3304079,2110622.710441304
794.6555392000001,2007214.1856742024
795.9848187000001,1913150.76315576
797.3182504,1825846.586434492
798.6558382999999,1742977.564362195
799.9975861,1663641.2775876955
801.3434973,1585741.904297726
802.6935752999999,1510419.1496726065
804.0478232999999,1437564.072187647
805.4062443,1367628.7720231244
806.7688411,1301695.3845820487
808.1356164,1240120.060906805
809.5065726,1183657.899297768
810.881712,1132334.1536698125
812.2610367000001,1085876.9113334347
813.6445485,1043587.3167137622
815.0322493,1004697.6743276272
816.4241404,968409.006576656
817.8202233,933318.2401410504
819.2204991,899116.5702209264
820.6249687999999,864897.1098753907
822.0336331,830232.955694159
823.4464925999999,794968.3611602952
824.8635477000001,759564.773113662
826.2847987,724118.5188902372
827.7102456,689123.515936417
829.1398882,655092.694732433
830.5737261,622111.7128145909
832.0117589,590517.13129382
833.4539857000001,560695.1867076791
834.9004057999999,532372.5912337779
836.3510179,505560.8878744025
837.8058209,479851.1261874744
839.2648132999999,455164.5877465536
840.7279934000001,431060.8606945975
842.1953594,407389.4142823333
843.6669092,384107.6578465593
845.1426408,361062.00322486064
846.6225517000001,338163.1508206549
848.1066392999999,315524.3289994862
849.5949009999999,293031.8247583148
851.0873337999999,271018.12152723875
852.5839347000001,249467.1316309073
854.0847002999999,228473.33789758905
855.5896273,208273.924826504
857.0987119999999,188741.7572744613
858.6119507000001,170146.76381401625
860.1293393999999,152510.40892807208
861.650874,136164.089540954
863.1765502000001,120960.25721488072
864.7063635,107014.17990464352
866.2403094,94338.80468785512
867.778383,82941.22315808732
869.3205793999999,72875.05904464095
870.8668935000001,63972.42718596479
872.4173199999999,56125.52867552271
873.9718536,49276.025414478776
875.5304886,43293.759152407234
877.0932193,38158.80559640124
878.6600399,33686.803771548395
880.2309443,29739.35129457298
881.8059264000001,26120.05528725268
883.3849798,22804.046260033087
884.9680981,19749.757825731333
886.5552747000002,16862.142316048292
888.1465029,14146.787363960331
889.7417757000001,11569.155556185571
891.3410862,9090.57184702946
892.9444273,6825.763449366958
894.5517916000001,4938.185893382236
896.1631719000001,3421.853088742012
897.7785605,2209.524925941165
899.3979498,1303.306992236457
901.0213321,660.9184241964713
902.6486995,256.61736409407644
904.280044,73.1600683633893
905.9153575,34.8168960149347
907.5546319,13.697765457150387
909.1978586,4.806466342541204
910.8450295,-3.375389010866936
912.4961358,-1.945838213316483
914.1511691,2.143651113792037
915.8101205,-5.588724546315235
917.4729813,-0.0847166052511163
919.1397426,-3.16334733574574
920.8103953,0.4415389257802514
922.4849303,4.762325317972104
924.1633386,0.3367390488550703
925.8456109,-2.954393976771409
927.5317378,1.1213101835771502
929.22171,-1.1784167152442042
930.9155179,-0.1959820145603092
932.6131521,2.623685655736
934.3146028,3.508808964553748
936.0198606,-1.4092467872262948
937.7289155,3.357051064217856
939.4417579,-0.1433549982058296
941.1583779,3.4924909085186995
942.8787656,1.7552833197681612
944.6029109,1.0438529115219704
946.3308041,1.61116527028671
948.0624349,-1.6406580822307812
949.7977933,0.0303627546615611
951.5368692,1.0054468414848572
953.2796523,2.8825024563870287
955.0261327,2.038386217692225
956.7762999,-0.9961022088620024
958.5301437,0.3059147389799099
960.2876539,-0.9832630871108788
962.0488201,-2.0465408019560334
963.813632,-3.145091001415989
965.5820793,-1.6500203217407448
967.3541517,-3.931627784697047
969.1298386,2.105018682888055
970.9091298,1.7033514814049606
972.6920149,-2.722886210281976
974.4784835,-0.4818640940231268
976.2685251,-0.3512474515183997
978.0621293,-4.374340339645181
979.8592859,-0.1795326001418748
981.6599843,1.1326973448076738
983.4642142,-1.3699780389486216
985.2719651,1.4194941617328218
987.0832269,-2.0340671427426784
988.897989,0.5951808195257647
990.7162412,0.8251880571268331
992.5379731,0.5697323218961414
994.3631745,-0.1305353913543167
996.191835,-2.5234487474089846
998.0239445,-1.4046168974828863
999.8594926,-1.721517714247634
1001.698469,0.1940873766338494
1003.540864,-2.4828015120146354
1005.386668,-0.2560380296789093
1007.235869,-1.0135027700346122
1009.088458,-1.3882057339090028
1010.944426,-1.4595044843212577
1012.803762,2.695458672122457
1014.666456,-1.7623914860927488
1016.532498,3.563393467847685
1018.401878,0.1326549887647255
1020.274588,2.036567084308109
1022.150616,-4.73185969603898
1024.029953,-1.7019446622146523
1025.912591,-1.3569396311604591
1027.798518,-1.7565954216705633
1029.687726,-0.98573078831702
1031.580205,0.4841937252135517
1033.475945,0.8186167813122637
1035.3749380000002,2.5893260434548018
1037.277175,1.538102537464364
1039.182645,-2.0127188922791954
1041.09134,2.6250894347966467
1043.003251,0.2137404881779373
1044.918368,-0.0573575810121391
1046.836683,0.7728066703273068
1048.758188,3.079024708981095
1050.682872,1.7863592040068756
