wave,flux
306.2504509,413.6603029465229
306.5604242,587.4351109143428
306.871524,788.1067772797148
307.18375710000004,1012.866458831128
307.4971302,1265.0050090880509
307.8116501,1530.0962798705666
308.1273236,1633.9460115267082
308.4441577,1740.9511326284671
308.7621594,1856.5399598197143
309.0813356,1970.3214148728189
309.4016935,2077.49603094576
309.7232403,2195.280841591653
310.04598300000004,2295.9806001680354
310.369929,2411.012913045849
310.6950856,2531.4318181795197
311.0214601,2649.7311622880225
311.34906010000003,2781.534396541368
311.6778931,2920.8325783247683
312.0079665,3073.8908301591687
312.33928810000003,3249.707275056225
312.6718655,3430.8824915680016
313.00570639999995,3617.149775485249
313.3408189,3812.3522082848663
313.6772106,4017.510661557936
314.0148896,4214.757161179084
314.3538639,4420.087307121141
314.6941415,4623.7006075590525
315.0357308,4833.225871357523
315.37863980000003,5035.168356956216
315.7228769,5256.024786094044
316.0684504,5475.601394641897
316.4153688,5707.198314512916
316.76364069999994,5931.172874898898
317.1132746,6169.115241046608
317.4642791,6408.101473693232
317.8166631,6645.874728723868
318.1704352,6898.000641964615
318.5256045,7154.810571799886
318.8821799,7419.238973836778
319.2401704,7681.384863590149
319.5995851,7966.278737726422
319.96043330000003,8254.3997292028
320.3227243,8531.333638518408
320.6864673,8843.874239006527
321.0516719,9162.70095006847
321.4183476,9499.52527485691
321.786504,9840.33000892954
322.1561508,10218.131781572603
322.5272977,10613.865015430658
322.8999548,11038.578581542037
323.2741319,11492.23477611406
323.649839,12011.362639382914
324.0270864,12564.71052456698
324.40588419999995,13187.148994561268
324.7862428,13907.81431956309
325.16817260000005,14729.745957806808
325.5516841,15726.147691028898
325.9367879,16911.08119522786
326.32349480000005,18337.116383701992
326.7118154,20003.593989210163
327.1017607,21974.403041035755
327.4933418,24266.0362431688
327.88656960000003,26899.72818452692
328.2814555,29977.02739648489
328.6780106,33414.77044330833
329.0762465,37290.37615863105
329.47617460000004,41626.845389030816
329.8778065,46485.060097281385
330.281154,51821.63140958932
330.6862289,57691.40077351477
331.0930432,64091.98046325782
331.5016088,70908.87072442702
331.911938,78262.22140283142
332.32404310000004,85937.01489112237
332.7379364,93946.05144117249
333.1536305,102173.72883021242
333.571138,110502.15434729538
333.9904716,118963.95757514633
334.4116443,127327.20917238518
334.834669,135568.0804662229
335.2595588,143619.63462878214
335.686327,151446.73148001664
336.114987,158912.2984239909
336.5455522,166044.82612506778
336.9780363,172702.40764988653
337.41245310000005,178919.08597383203
337.8488164,184528.2820190369
338.28714019999995,189588.20706985003
338.7274388,194127.0714582824
339.1697264,198378.64302305743
339.6140175,202290.48932919212
340.06032660000005,206232.382098978
340.5086685,210471.97173736469
340.959058,215210.37259847773
341.4115102,220730.7706086232
341.8660403,227405.45891266468
342.32266339999995,235240.2106288793
342.7813952,244359.5158522805
343.24225110000003,254657.4089938668
343.70524710000007,265991.7145038338
344.17039889999995,278044.1713162513
344.6377228,290406.915441374
345.1072349,302806.58997775853
345.5789517,314923.91415814764
346.0528897,326417.04244643194
346.5290657,337206.4642618238
347.0074967,347275.7599983741
347.48819960000003,356725.56277792563
347.9711917,365793.081441311
348.45649060000005,374698.744118551
348.9441137,384000.6575324564
349.434079,393606.6472894678
349.9264043,403576.826908908
350.4211078,414061.8084789497
350.9182079,424574.1426324881
351.4177232,435100.418050571
351.9196722,444877.9783822671
352.42407410000004,453340.8154934625
352.9309478,460099.6337134552
353.4403127,464527.6387656216
353.95218839999995,466423.1265892769
354.4665945,465659.8843007712
354.983551,462407.27102872654
355.503078,456437.36978972255
356.025196,448340.1641823343
356.5499253,438617.4093484412
357.077287,427868.32390356646
357.6073018,416819.3790019912
358.1399912,405998.09741657577
358.6753765,396098.2800789369
359.2134795,387467.4440366328
359.754322,380768.4719124289
360.2979263,376522.9855185285
360.8443147,374908.6767864815
361.3935098,376098.8083668407
361.9455346,380064.1987998661
362.5004122,386920.4322545459
363.058166,396484.3915063259
363.61881960000005,408520.288447796
364.1823969,422581.022277676
364.7489221,438099.15981086274
365.3184196,454669.8711464821
365.8909141,471690.9687631922
366.4664305,488228.7620479012
367.0449943,504143.0273982989
367.6266307,518767.27700777096
368.2113658,531924.0754848156
368.7992255,543622.7389756744
369.3902363,554199.4842540608
369.9844249,564042.3635309804
370.5818182,573791.2337338377
371.1824436,584247.5518455275
371.7863286000001,596094.1397047356
372.3935012,609827.7864108385
373.0039896,625669.4391261046
373.6178223,644028.0983594231
374.2350283,664179.5608999489
374.8556368,685915.2705946477
375.4796772,708364.57772735
376.1071796,730874.8203095564
376.7381741,752669.2019542169
377.3726913,773396.9782935869
378.0107622,792765.3347285738
378.652418,811427.7176886451
379.2976904,829456.9730022768
379.9466115,848014.882652991
380.5992136,868279.0538280482
381.2555296,891357.896717113
381.9155926,917784.9754961916
382.5794362,948506.9412412506
383.2470943,983328.2934457208
383.9186014,1022091.4863440578
384.5939922,1063852.3499802863
385.2733019,1107341.813031077
385.9565661,1151452.6596317687
386.6438209,1194641.645970581
387.3351027,1235907.8864523196
388.0304484,1274977.168105225
388.7298955,1311798.8962419524
389.4334817,1346976.1053273275
390.1412452,1381255.4993599805
390.853225,1416740.8380711025
391.56946,1454544.6127231645
392.2899901,1496136.8400103603
393.0148555,1543262.49174649
393.7440968,1596522.4003788056
394.4777551,1656115.10873434
395.2158722,1721898.9699652004
395.9584903,1793308.547375132
396.7056521,1869775.1459492743
397.457401,1950122.7029100684
398.2137806,2032216.6614063587
398.9748353,2115867.51976213
399.7406101,2198606.9679110595
400.5111505,2280076.995874282
401.2865024,2358761.9076110288
402.0667126,2434029.604856624
402.8518283,2505800.003265061
403.6418973,2575242.842159428
404.436968,2644220.7225319985
405.2370896,2714383.079419514
406.0423117,2789788.66040256
406.8526847,2874957.98488739
407.66825960000006,2974762.381141791
408.4890879,3094901.959148507
409.3152221,3241974.589092102
410.1467152,3421602.076921636
410.9836208,3635532.0013327054
411.8259934,3878472.259635612
412.673888,4144997.105726106
413.5273605,4426235.430147407
414.38646760000006,4712605.713005627
415.2512664,4991917.655857673
416.1218152,5252088.855998838
416.9981727,5477918.279770057
417.8803987,5659585.310860572
418.7685535,5799998.590389816
419.6626985,5902952.541112895
420.5628957,5973244.418654799
421.4692081,6015312.747772262
422.3816994,6035503.569647785
423.3004343,6041612.307383495
424.2254783,6041406.826421621
425.1568978,6041537.192208112
426.0947602,6041512.258065651
427.0391337,6041392.642964689
427.9900874,6041514.012695914
428.9476917,6041068.900124823
429.9120175,6041608.773652655
430.8831369,6041605.035006978
431.8611232,6041369.903747167
432.8460504,6041372.394286612
433.8379937,6041505.19809385
434.8370293,6041234.096557676
435.8432345,6041284.783194752
436.8566878,6041141.179385805
437.8774686,6041539.194995685
438.9056575,6041434.570261397
439.9413364,6041644.387685755
440.9845882,6041511.2809072565
442.035497,6041494.770158217
443.0941482,6041719.826378883
444.1606283,6041578.043833743
445.23502520000005,6041775.072381348
446.317428,6041492.090022659
447.407927,6041814.929927271
448.5066141,6041385.5142976185
449.6135822,6041330.998646609
450.7289258,6041642.81023487
451.85274060000006,6041174.250669507
452.9851239,6041696.632549205
454.1261744,6041339.88354058
455.2759921,6041343.896922467
456.4346788,6041117.082946615
457.6023374,6041601.768913497
458.7790727,6041675.258133375
459.9649909,6041540.151182356
461.1601998,6041406.007446627
462.364809,6041331.034867543
463.5789295,6041432.802291187
464.8026741000001,6041610.580084156
466.0361575,6041955.382466594
467.2794956999999,6040841.951754987
468.5328070000001,6041275.42055349
469.7962111000001,6041314.81084971
471.0698299,6041321.8223898215
472.3537868,6041761.452796542
473.6482074,6041397.775459596
474.9532192,6041614.674441013
476.2689517,6041432.892305547
477.5955362,6041341.025606773
478.93310639999993,6041502.504638441
480.2817979,6041240.201974826
481.6417484,6041631.630664088
483.01309800000007,6041254.632015907
484.3959889,6041140.467189698
485.7905654,6041631.029579795
487.1969743,6041376.14161883
488.6153648,6041471.694461161
490.0458884,6041735.748557469
491.488699,6041421.073903807
492.943953,6041489.098266757
494.4118094,6041197.66091863
495.8924299,6041726.140740767
497.3859785,6041773.606421754
498.8926222,6041427.355144415
500.4125306,6041632.626237574
501.9458762,6041544.074316948
503.4928341,6041577.153463494
505.0535827,6041529.542840385
506.628303,6041476.688827175
508.2171791999999,6040860.1000141725
509.8203986,6041373.566709965
511.4381515,6041373.85594455
513.0706316000001,6041347.446783678
514.7180356,6041692.582665202
516.3805639,6041397.303113238
518.0584200000001,6041156.122857228
519.7518110000001,6041417.273294349
521.4609475999999,6041956.4053745
523.186044,6040940.001717042
524.927318,6041045.167752562
526.6849915,6041153.477779201
528.45929,6041533.607534845
530.2504428000001,6041048.755442252
532.0586836,6041523.617794678
533.8842498,6041349.12939461
535.7273833,6041085.0185090285
537.5883299,6041897.925804611
539.46734,6041301.326265544
541.3646685,6041555.43127139
543.2805745000001,6041170.745801566
545.2153222000001,6041559.344133248
547.1691801,6041202.131850412
549.1424218999999,6041429.673344325
551.1353259,6041476.962424068
553.1481756000001,6041444.2697440265
555.1812597,6041354.025008139
557.2348721,6041919.72004764
559.3093121,6040977.651151478
561.4048845,6041648.388093776
563.5218996,6041006.339250944
565.6606737000001,6041219.143510773
567.8215287,6041057.527611481
570.0047927,6041309.282314021
572.2107997,6041432.139763792
574.4398902,6041507.310538295
576.692411,6041577.870557237
578.9687155,6042121.421538848
581.2691637,6041138.981069995
583.5941226,6040797.006462597
585.943966,6041203.411663319
588.3190752,6041229.8861318575
590.7198384999999,6041383.547830166
593.1466518,6040991.5228646165
595.5999188999999,6041803.418270297
598.0800512,6041339.613838381
600.5874682,6041451.465338031
603.1225977000001,6041557.997736602
605.6858758999999,6041204.054198423
608.2777476,6041528.378391695
610.8986664,6041928.419607414
613.549095,6041712.656341209
616.2295054,6041123.113125158
618.940379,6041710.386525115
621.6822068,6040501.148649397
624.4554901,6040107.310178433
627.2607402000001,6041675.7298947815
630.0984786,6042701.193933464
632.9692378999999,6042279.866206359
635.8735614,6041636.95602123
638.8120038,6041201.303852484
641.7851312999999,6041220.717204413
644.7935217999999,6039272.917165892
647.8377654,6040171.645023188
647.980979,6041639.2935286
648.8331985,6041530.901683455
649.6880352999999,6041238.076626463
650.5455028,6041684.580826319
650.9184646000001,6040541.819418347
651.4056144,6041370.302348843
652.2683836,6041758.53502382
653.1338237000001,6041033.48180772
654.0019482999999,6041398.277759437
654.0362346,6041639.822568354
654.8727708,6041174.869245926
655.7463047,6041098.4605098935
656.6225636,6041247.998199501
657.501561,6041213.102491157
658.3833105,6041675.173506688
659.2678255,6041354.862794315
660.1551197000001,6041644.441429223
661.0452068,6041939.220913758
661.9381002,6041391.46357243
662.8338137000001,6041566.783747729
663.7323607999999,6041506.331844827
664.6337553,6041395.154352518
665.5380107000001,6041174.928814688
666.4451407,6041789.567108886
667.355159,6041768.990847449
668.2680793,6041025.600701578
669.1839152000001,6041878.621230503
670.1026805,6041536.203329182
671.0243889,6041817.049782247
671.949054,6041288.980459927
672.8766895,6041271.116313018
673.8073092,6041228.570076198
674.7409267,6041021.87285016
675.6775557999999,6041509.762488304
676.6172101,6041406.773123708
677.5599033,6041372.668337625
678.5056492000001,6041317.116322317
679.4544612999999,6041289.512202607
680.4063535,6041134.786884902
681.3613392999999,6041533.216924714
682.3194324,6041266.774412323
683.2806465,6041136.6792547135
684.2449952000001,6041656.735559247
685.2124921,6041453.935218197
686.1831509,6041477.807051958
687.1569850999999,6041447.407197123
688.1340083,6040951.0301357685
689.1142341,6041551.977994118
690.097676,6041295.175980351
691.0843474999999,6041496.867909148
692.0742622,6041330.458684293
693.0674334,6041360.913656178
694.0638748,6041843.168072684
695.0635996,6041188.541090461
696.0666212,6041507.856637272
697.0729531000001,6041130.160638803
698.0826086,6041226.637563645
699.0956008999999,6041517.02129734
700.1119432999999,6041433.962947777
701.1316491,6041447.719601933
702.1547314,6041815.003225118
703.1812034,6040981.717873668
704.2110782000001,6040967.6351438975
705.2443688999999,6041738.733177078
706.2810885,6041548.596795866
707.3212499,6041271.804002987
708.3648661000001,6041728.899340636
709.41195,6041584.068917628
710.4625143999999,6041240.915375478
711.5165721,6041437.214353087
712.5741357,6041658.888258887
713.6352181,6041853.817453749
714.6998317000001,6041671.885354993
715.7679891,6041130.504671548
716.8397027999999,6041436.080231153
717.9149852,6041318.773342314
718.9938487000001,6041110.558645267
720.0763055,6041722.756696959
721.162368,6041509.564044408
722.2520481,6041873.071762422
723.3453581,6041526.665576748
724.4423098,6041324.880358534
725.5429153,6041484.095598589
726.6471863,6041026.719533288
727.7551346,6041408.608434394
728.866772,6041784.03417271
729.9821099,6041725.843732835
731.1011599,6041513.788835146
732.2239335,6041210.168393136
733.3504419,6041645.331585477
734.4806963999999,6040885.036336835
735.6147081,6041689.546074187
736.7524882,6041305.1218696935
737.8940474,6041200.265325408
739.0393967,6041800.426085106
740.1885467999999,6041282.587589228
741.3415084,6041523.938211418
742.498292,6041349.3987891525
743.658908,6041682.543470183
744.8233667999999,6041026.177558086
745.9916785,6041609.620689474
747.1638532000001,6041236.894622227
748.3399009,6041267.287163357
749.5198315,6040997.277771267
750.7036546,6041894.717999257
751.89138,6041019.960727064
753.0830171,6041294.731642417
754.2785752999999,6041196.609560045
755.4780638,6040896.320479778
756.6814917,6041697.931365322
757.8888678999999,6041314.892698192
759.1002014999999,6041291.76002809
760.3155009,6041289.917748722
761.5347749,6036780.657062923
762.7580318,6023964.05980649
763.98528,5997712.657800937
765.2165276000001,5955951.308974412
766.4517825,5895347.040713949
767.6910527000001,5813382.031961722
768.9343458999999,5705559.672415217
770.1816697,5569875.59638177
771.4330313999999,5410181.127787641
772.6884382999999,5231843.763107789
773.9478975,5039085.463048446
775.211416,4832980.524139859
776.4790005,4616379.994471286
777.7506578,4391418.445752092
779.0263942,4162201.13336868
780.3062162,3932472.826492075
781.5901297,3704004.682353642
782.8781409,3478031.841765556
784.1702554999999,3257889.636634962
785.4664793,3047456.7490209923
786.7668176,2849790.805837604
788.0712758,2667880.449633716
789.3798591,2503522.8423466543
790.6925722999999,2356380.8811159288
792.0094204,2226130.71682236
793.3304079,2110622.710441304
794.6555392000001,2007214.1856742024
795.9848187000001,1913150.76315576
797.3182504,1825846.586434492
798.6558382999999,1742977.564362195
799.9975861,1663641.2775876955
801.3434973,1585741.904297726
802.6935752999999,1510419.1496726065
804.0478232999999,1437564.072187647
805.4062443,1367628.7720231244
806.7688411,1301695.3845820487
808.1356164,1240120.060906805
809.5065726,1183657.899297768
810.881712,1132334.1536698125
812.2610367000001,1085876.9113334347
813.6445485,1043587.3167137622
815.0322493,1004697.6743276272
816.4241404,968409.006576656
817.8202233,933318.2401410504
819.2204991,899116.5702209264
820.6249687999999,864897.1098753907
822.0336331,830232.955694159
823.4464925999999,794968.3611602952
824.8635477000001,759564.773113662
826.2847987,724118.5188902372
827.7102456,689123.515936417
829.1398882,655092.694732433
830.5737261,622111.7128145909
832.0117589,590517.13129382
833.4539857000001,560695.1867076791
834.9004057999999,532372.5912337779
836.3510179,505560.8878744025
837.8058209,479851.1261874744
839.2648132999999,455164.5877465536
840.7279934000001,431060.8606945975
842.1953594,407389.4142823333
843.6669092,384107.6578465593
845.1426408,361062.00322486064
846.6225517000001,338163.1508206549
848.1066392999999,315524.3289994862
849.5949009999999,293031.8247583148
851.0873337999999,271018.12152723875
852.5839347000001,249467.1316309073
854.0847002999999,228473.33789758905
855.5896273,208273.924826504
857.0987119999999,188741.7572744613
858.6119507000001,170146.76381401625
860.1293393999999,152510.40892807208
861.650874,136164.089540954
863.1765502000001,120960.25721488072
864.7063635,107014.17990464352
866.2403094,94338.80468785512
867.778383,82941.22315808732
869.3205793999999,72875.05904464095
870.8668935000001,63972.42718596479
872.4173199999999,56125.52867552271
873.9718536,49276.025414478776
875.5304886,43293.759152407234
877.0932193,38158.80559640124
878.6600399,33686.803771548395
880.2309443,29739.35129457298
881.8059264000001,26120.05528725268
883.3849798,22804.046260033087
884.9680981,19749.757825731333
886.5552747000002,16862.142316048292
888.1465029,14146.787363960331
889.7417757000001,11569.155556185571
891.3410862,9090.57184702946
892.9444273,6825.763449366958
894.5517916000001,4938.185893382236
896.1631719000001,3421.853088742012
897.7785605,2209.524925941165
899.3979498,1303.306992236457
901.0213321,660.9184241964713
902.6486995,256.61736409407644
904.280044,73.1600683633893
905.9153575,34.8168960149347
907.5546319,13.697765457150387
909.1978586,4.806466342541204
910.8450295,-3.375389010866936
912.4961358,-1.945838213316483
914.1511691,2.143651113792037
915.8101205,-5.588724546315235
917.4729813,-0.0847166052511163
919.1397426,-3.16334733574574
920.8103953,0.4415389257802514
922.4849303,4.762325317972104
924.1633386,0.3367390488550703
925.8456109,-2.954393976771409
927.5317378,1.1213101835771502
929.22171,-1.1784167152442042
930.9155179,-0.1959820145603092
932.6131521,2.623685655736
934.3146028,3.508808964553748
936.0198606,-1.4092467872262948
937.7289155,3.357051064217856
939.4417579,-0.1433549982058296
941.1583779,3.4924909085186995
942.8787656,1.7552833197681612
944.6029109,1.0438529115219704
946.3308041,1.61116527028671
948.0624349,-1.6406580822307812
949.7977933,0.0303627546615611
951.5368692,1.0054468414848572
953.2796523,2.8825024563870287
955.0261327,2.038386217692225
956.7762999,-0.9961022088620024
958.5301437,0.3059147389799099
960.2876539,-0.9832630871108788
962.0488201,-2.0465408019560334
963.813632,-3.145091001415989
965.5820793,-1.6500203217407448
967.3541517,-3.931627784697047
969.1298386,2.105018682888055
970.9091298,1.7033514814049606
972.6920149,-2.722886210281976
974.4784835,-0.4818640940231268
976.2685251,-0.3512474515183997
978.0621293,-4.374340339645181
979.8592859,-0.1795326001418748
981.6599843,1.1326973448076738
983.4642142,-1.3699780389486216
985.2719651,1.4194941617328218
987.0832269,-2.0340671427426784
988.897989,0.5951808195257647
990.7162412,0.8251880571268331
992.5379731,0.5697323218961414
994.3631745,-0.1305353913543167
996.191835,-2.5234487474089846
998.0239445,-1.4046168974828863
999.8594926,-1.721517714247634
1001.698469,0.1940873766338494
1003.540864,-2.4828015120146354
1005.386668,-0.2560380296789093
1007.235869,-1.0135027700346122
1009.088458,-1.3882057339090028
1010.944426,-1.4595044843212577
1012.803762,2.695458672122457
1014.666456,-1.7623914860927488
1016.532498,3.563393467847685
1018.401878,0.1326549887647255
1020.274588,2.036567084308109
1022.150616,-4.73185969603898
1024.029953,-1.7019446622146523
