wave,flux
306.2504509,866.5634860783647
306.5604242,1242.5885154366488
306.871524,1659.0832324505316
307.18375710000004,2132.4037854554085
307.4971302,2686.999390052133
307.8116501,3315.997264286271
308.1273236,3588.5390951911963
308.4441577,3900.235025442165
308.7621594,4244.089283766452
309.0813356,4609.3164061468815
309.4016935,4993.344964307064
309.7232403,5392.111459301631
310.04598300000004,5795.025406991398
310.369929,6208.035180395242
310.6950856,6599.82748706245
311.0214601,7001.871636219848
311.34906010000003,7395.923506747964
311.6778931,7787.308521200297
312.0079665,8172.904697603742
312.33928810000003,8595.41908142359
312.6718655,8998.895673915607
313.00570639999995,9444.448930052478
313.3408189,9885.52750845437
313.6772106,10351.692422093409
314.0148896,10834.357196219971
314.3538639,11340.559413935856
314.6941415,11877.128193415634
315.0357308,12409.218546826372
315.37863980000003,12978.39198589964
315.7228769,13565.643646794771
316.0684504,14184.623229210882
316.4153688,14838.389236571556
316.76364069999994,15495.436403249252
317.1132746,16177.615331340252
317.4642791,16907.13347367911
317.8166631,17613.348968447423
318.1704352,18357.685259362373
318.5256045,19166.40608573024
318.8821799,19943.21127195569
319.2401704,20759.362501813262
319.5995851,21563.417417129043
319.96043330000003,22399.77214746828
320.3227243,23255.2448389218
320.6864673,24120.60877038377
321.0516719,24992.281350110352
321.4183476,25905.3615206104
321.786504,26806.268202654643
322.1561508,27769.90955652952
322.5272977,28825.560234607816
322.8999548,29893.696046403944
323.2741319,31133.075425468134
323.649839,32455.548305915123
324.0270864,33936.77976062303
324.40588419999995,35583.726435176024
324.7862428,37413.4872522732
325.16817260000005,39463.91129339889
325.5516841,41883.09498686447
325.9367879,44634.856247251584
326.32349480000005,47767.30150404383
326.7118154,51454.96256505366
327.1017607,55596.93216922641
327.4933418,60483.93182186808
327.88656960000003,65934.17902600317
328.2814555,72194.42623206045
328.6780106,79205.93502278316
329.0762465,87050.4203111972
329.47617460000004,95654.0364390873
329.8778065,105228.15122065796
330.281154,115664.46762897471
330.6862289,126917.95280321632
331.0930432,138949.3652343381
331.5016088,151851.04890524654
331.911938,165481.83864520903
332.32404310000004,179879.90339668258
332.7379364,195042.84214049188
333.1536305,210928.97386459948
333.571138,227578.33870878388
333.9904716,245109.7890643692
334.4116443,263239.38001450466
334.834669,281945.10980970465
335.2595588,301242.4795618082
335.686327,320671.407914775
336.114987,340238.958922877
336.5455522,359667.20815490175
336.9780363,378728.4714099397
337.41245310000005,396880.0834120496
337.8488164,414560.1188618621
338.28714019999995,431425.8690976801
338.7274388,447514.9795617734
339.1697264,463548.6575177756
339.6140175,479620.0516839197
340.06032660000005,496520.6339484136
340.5086685,514972.4926801882
340.959058,535733.338796085
341.4115102,559793.7589715938
341.8660403,587707.6778256614
342.32266339999995,620262.1063464113
342.7813952,658115.9285329581
343.24225110000003,701136.4037637765
343.70524710000007,749005.6103562575
344.17039889999995,801612.4014474872
344.6377228,857695.090132627
345.1072349,916126.5797511076
345.5789517,975218.8321392216
346.0528897,1032958.6953830032
346.5290657,1087942.7473098324
347.0074967,1137990.2085156387
347.48819960000003,1182086.1553043493
347.9711917,1218739.2015796832
348.45649060000005,1247898.168499481
348.9441137,1269130.8368152764
349.434079,1283162.016534183
349.9264043,1290802.8272238362
350.4211078,1293486.9852744371
350.9182079,1292456.5154234604
351.4177232,1289054.5734517009
351.9196722,1284760.465923865
352.42407410000004,1280168.2365513418
352.9309478,1276572.8311949405
353.4403127,1273934.3841622656
353.95218839999995,1272780.4019458056
354.4665945,1272831.050707566
354.983551,1274237.7336350826
355.503078,1276837.3732056816
356.025196,1280505.042034722
356.5499253,1284609.0598323948
357.077287,1289442.0122710296
357.6073018,1295165.341188759
358.1399912,1301289.6446921905
358.6753765,1307732.9436269382
359.2134795,1314272.013557774
359.754322,1321243.224135941
360.2979263,1328320.752376836
360.8443147,1335327.3522170745
361.3935098,1342215.21004196
361.9455346,1349148.192757961
362.5004122,1355588.5741366085
363.058166,1361918.1072192278
363.61881960000005,1368191.8224065143
364.1823969,1374377.9662154613
364.7489221,1380858.682855435
365.3184196,1387482.5900908508
365.8909141,1394862.036282378
366.4664305,1402419.0090079466
367.0449943,1410473.3347016282
367.6266307,1419009.9122426026
368.2113658,1427945.8861179068
368.7992255,1436317.2517732654
369.3902363,1444452.1943591896
369.9844249,1451321.6814763437
370.5818182,1457379.7109105338
371.1824436,1462282.5907175175
371.7863286000001,1465880.3617351537
372.3935012,1468447.5315533828
373.0039896,1470360.0094508885
373.6178223,1471768.0806661372
374.2350283,1472991.633678426
374.8556368,1474380.215560645
375.4796772,1475567.869111762
376.1071796,1476720.206013406
376.7381741,1477543.068536982
377.3726913,1477495.7901144165
378.0107622,1476477.8593085187
378.652418,1474404.722597632
379.2976904,1471049.4554120009
379.9466115,1467669.6113282617
380.5992136,1464634.2821959087
381.2555296,1463857.7250160817
381.9155926,1466717.8158255927
382.5794362,1475013.5566347956
383.2470943,1491154.8126316406
383.9186014,1516816.5173614398
384.5939922,1552726.5623328332
385.2733019,1600148.3514182856
385.9565661,1658471.9919918012
386.6438209,1727602.1389697974
387.3351027,1804706.7054082984
388.0304484,1887689.8212248927
388.7298955,1973628.2730374727
389.4334817,2058521.189376036
390.1412452,2139025.563811934
390.853225,2211999.8310084627
391.56946,2274017.915424953
392.2899901,2324018.2946690074
393.0148555,2360331.0935556847
393.7440968,2383310.4793219715
394.4777551,2393155.74831647
395.2158722,2391909.4947350486
395.9584903,2380858.2558634174
396.7056521,2362081.2906210567
397.457401,2337433.2304047854
398.2137806,2308606.230781369
398.9748353,2276014.3573843967
399.7406101,2241160.622761565
400.5111505,2203814.260878145
401.2865024,2164924.444751529
402.0667126,2125175.987300361
402.8518283,2085339.155437039
403.6418973,2046708.5152478956
404.436968,2010514.6721476768
405.2370896,1979183.265037291
406.0423117,1954711.659870881
406.8526847,1938520.317921241
407.66825960000006,1932800.2270068256
408.4890879,1938403.7559864323
409.3152221,1955804.5009622625
410.1467152,1985387.7792981807
410.9836208,2027108.430653161
411.8259934,2079921.1103690453
412.673888,2143293.1524883136
413.5273605,2216051.151177824
414.38646760000006,2297576.7452814505
415.2512664,2387135.490325667
416.1218152,2484441.829206052
416.9981727,2590841.697607692
417.8803987,2705596.3072305084
418.7685535,2830119.068072334
419.6626985,2964041.2779199714
420.5628957,3107724.2315311283
421.4692081,3258309.708930551
422.3816994,3412896.2590703787
423.3004343,3567809.980232241
424.2254783,3715969.232576822
425.1568978,3851663.601744607
426.0947602,3967870.092650501
427.0391337,4058161.27830691
427.9900874,4118241.417451522
428.9476917,4145899.656937879
429.9120175,4142057.5888181455
430.8831369,4109159.340980204
431.8611232,4053411.487120669
432.8460504,3982202.132221844
433.8379937,3904551.916926018
434.8370293,3828059.10469272
435.8432345,3760577.296136954
436.8566878,3708451.020533924
437.8774686,3675029.878481583
438.9056575,3662844.426274456
439.9413364,3673068.994316617
440.9845882,3704394.3040316617
442.035497,3755512.835722093
443.0941482,3824584.060514436
444.1606283,3909784.0819132417
445.23502520000005,4011128.308139789
446.317428,4127832.95537615
447.407927,4260646.156656927
448.5066141,4410667.346719407
449.6135822,4575178.896025172
450.7289258,4750878.201950645
451.85274060000006,4933901.776441709
452.9851239,5118529.316319336
454.1261744,5299080.144517812
455.2759921,5469453.9779085135
456.4346788,5622028.986904028
457.6023374,5748769.839596065
458.7790727,5848621.884307409
459.9649909,5924220.995685662
461.1601998,5977289.981578965
462.364809,6012240.583099986
463.5789295,6031749.504103806
464.8026741000001,6040195.605205933
466.0361575,6041453.453382845
467.2794956999999,6041554.056313922
468.5328070000001,6041540.025872838
469.7962111000001,6041352.499882002
471.0698299,6040867.453071325
472.3537868,6041301.39185962
473.6482074,6041227.744760063
474.9532192,6041401.689126708
476.2689517,6042041.488959378
477.5955362,6041693.594772807
478.93310639999993,6041337.495598203
480.2817979,6041020.383287894
481.6417484,6041252.565220525
483.01309800000007,6041499.6590510085
484.3959889,6041712.334398123
485.7905654,6041688.724886106
487.1969743,6041638.571157713
488.6153648,6041503.708293677
490.0458884,6041479.255574073
491.488699,6041199.352427837
492.943953,6041399.963488777
494.4118094,6041257.26152724
495.8924299,6041792.589368708
497.3859785,6041545.013088647
498.8926222,6041564.339168708
500.4125306,6041021.753455624
501.9458762,6040863.5161159225
503.4928341,6041400.576142233
505.0535827,6041327.102598188
506.628303,6041302.242696673
508.2171791999999,6041463.686758199
509.8203986,6041182.720753993
511.4381515,6041469.652084352
513.0706316000001,6041600.774705049
514.7180356,6041144.016935859
516.3805639,6041349.75463789
518.0584200000001,6041147.410317493
519.7518110000001,6041352.55428503
521.4609475999999,6041049.325495742
523.186044,6041252.552835649
524.927318,6041079.794883743
526.6849915,6041368.804998023
528.45929,6041910.013347299
530.2504428000001,6041290.375575513
532.0586836,6041627.64634433
533.8842498,6041305.7320159525
535.7273833,6041651.372133885
537.5883299,6041809.166648896
539.46734,6041160.050903485
541.3646685,6041716.50282577
543.2805745000001,6041577.852023134
545.2153222000001,6041587.082434414
547.1691801,6041261.593810952
549.1424218999999,6040970.452241066
551.1353259,6041448.795473447
553.1481756000001,6041061.698542697
555.1812597,6041972.46327006
557.2348721,6041595.006154022
559.3093121,6041753.677041501
561.4048845,6041752.731373421
563.5218996,6041337.458439383
565.6606737000001,6041297.383058099
567.8215287,6041240.935973112
570.0047927,6041226.585514834
572.2107997,6041542.681940204
574.4398902,6041172.790092674
576.692411,6041264.2151472485
578.9687155,6041171.036207774
581.2691637,6041957.418454251
583.5941226,6041494.518957073
585.943966,6041621.171456322
588.3190752,6041387.865318017
590.7198384999999,6041548.964863849
593.1466518,6041226.068361987
595.5999188999999,6041351.613514482
598.0800512,6041446.442560024
600.5874682,6041618.170965719
603.1225977000001,6041489.610258404
605.6858758999999,6041694.868502161
608.2777476,6041308.837734942
610.8986664,6041525.463277187
613.549095,6041313.54677503
616.2295054,6041282.084547879
618.940379,6041496.049271796
621.6822068,6041861.413230704
624.4554901,6040706.953312545
627.2607402000001,6040150.722889097
630.0984786,6041587.746952833
632.9692378999999,6042210.965718289
635.8735614,6041510.25631275
638.8120038,6041997.29510833
641.7851312999999,6042455.359177548
644.7935217999999,6041002.665245992
647.8377654,6042400.237525018
650.9184646000001,6042738.209604317
654.0362346,6042161.450509767
657.1917038,6039583.352054346
660.3855139,6041944.81000847
661.0452068,6041939.220913758
661.9381002,6041391.46357243
662.8338137000001,6041566.783747729
663.7323607999999,6041506.331844827
664.6337553,6041395.154352518
665.5380107000001,6041174.928814688
666.4451407,6041789.567108886
667.355159,6041768.990847449
668.2680793,6041025.600701578
669.1839152000001,6041878.621230503
670.1026805,6041536.203329182
671.0243889,6041817.049782247
671.949054,6041288.980459927
672.8766895,6041271.116313018
673.8073092,6041228.570076198
674.7409267,6041021.87285016
675.6775557999999,6041509.762488304
676.6172101,6041406.773123708
677.5599033,6041372.668337625
678.5056492000001,6041317.116322317
679.4544612999999,6041289.512202607
680.4063535,6041134.786884902
681.3613392999999,6041533.216924714
682.3194324,6041266.774412323
683.2806465,6041136.6792547135
684.2449952000001,6041656.735559247
685.2124921,6041453.935218197
686.1831509,6041477.807051958
687.1569850999999,6041447.407197123
688.1340083,6040951.0301357685
689.1142341,6041551.977994118
690.097676,6041295.175980351
691.0843474999999,6041496.867909148
692.0742622,6041330.458684293
693.0674334,6041360.913656178
694.0638748,6041843.168072684
695.0635996,6041188.541090461
696.0666212,6041507.856637272
697.0729531000001,6041130.160638803
698.0826086,6041226.637563645
699.0956008999999,6041517.02129734
700.1119432999999,6041433.962947777
701.1316491,6041447.719601933
702.1547314,6041815.003225118
703.1812034,6040981.717873668
704.2110782000001,6040967.6351438975
705.2443688999999,6041738.733177078
706.2810885,6041548.596795866
707.3212499,6041271.804002987
708.3648661000001,6041728.899340636
709.41195,6041584.068917628
710.4625143999999,6041240.915375478
711.5165721,6041437.214353087
712.5741357,6041658.888258887
713.6352181,6041853.817453749
714.6998317000001,6041671.885354993
715.7679891,6041130.504671548
716.8397027999999,6041436.080231153
717.9149852,6041318.773342314
718.9938487000001,6041110.558645267
720.0763055,6041722.756696959
721.162368,6041509.564044408
722.2520481,6041873.071762422
723.3453581,6041526.665576748
724.4423098,6041324.880358534
725.5429153,6041484.095598589
726.6471863,6041026.719533288
727.7551346,6041408.608434394
728.866772,6041784.03417271
729.9821099,6041725.843732835
731.1011599,6041513.788835146
732.2239335,6041210.168393136
733.3504419,6041645.331585477
734.4806963999999,6040885.036336835
735.6147081,6041689.546074187
736.7524882,6041305.1218696935
737.8940474,6041200.265325408
739.0393967,6041800.426085106
740.1885467999999,6041282.587589228
741.3415084,6041523.938211418
742.498292,6041349.3987891525
743.658908,6041682.543470183
744.8233667999999,6041026.177558086
745.9916785,6041609.620689474
747.1638532000001,6041236.894622227
748.3399009,6041267.287163357
749.5198315,6040997.277771267
750.7036546,6041894.717999257
751.89138,6041019.960727064
753.0830171,6041294.731642417
754.2785752999999,6041196.609560045
755.4780638,6040896.320479778
756.6814917,6041697.931365322
757.8888678999999,6041314.892698192
759.1002014999999,6041291.76002809
760.3155009,6041289.917748722
761.5347749,6036780.657062923
762.7580318,6023964.05980649
763.98528,5997712.657800937
765.2165276000001,5955951.308974412
766.4517825,5895347.040713949
767.6910527000001,5813382.031961722
768.9343458999999,5705559.672415217
770.1816697,5569875.59638177
771.4330313999999,5410181.127787641
772.6884382999999,5231843.763107789
773.9478975,5039085.463048446
775.211416,4832980.524139859
776.4790005,4616379.994471286
777.7506578,4391418.445752092
779.0263942,4162201.13336868
780.3062162,3932472.826492075
781.5901297,3704004.682353642
782.8781409,3478031.841765556
784.1702554999999,3257889.636634962
785.4664793,3047456.7490209923
786.7668176,2849790.805837604
788.0712758,2667880.449633716
789.3798591,2503522.8423466543
790.6925722999999,2356380.8811159288
792.0094204,2226130.71682236
793.3304079,2110622.710441304
794.6555392000001,2007214.1856742024
795.9848187000001,1913150.76315576
797.3182504,1825846.586434492
798.6558382999999,1742977.564362195
799.9975861,1663641.2775876955
801.3434973,1585741.904297726
802.6935752999999,1510419.1496726065
804.0478232999999,1437564.072187647
805.4062443,1367628.7720231244
806.7688411,1301695.3845820487
808.1356164,1240120.060906805
809.5065726,1183657.899297768
810.881712,1132334.1536698125
812.2610367000001,1085876.9113334347
813.6445485,1043587.3167137622
815.0322493,1004697.6743276272
816.4241404,968409.006576656
817.8202233,933318.2401410504
819.2204991,899116.5702209264
820.6249687999999,864897.1098753907
822.0336331,830232.955694159
823.4464925999999,794968.3611602952
824.8635477000001,759564.773113662
826.2847987,724118.5188902372
827.7102456,689123.515936417
829.1398882,655092.694732433
830.5737261,622111.7128145909
832.0117589,590517.13129382
833.4539857000001,560695.1867076791
834.9004057999999,532372.5912337779
836.3510179,505560.8878744025
837.8058209,479851.1261874744
839.2648132999999,455164.5877465536
840.7279934000001,431060.8606945975
842.1953594,407389.4142823333
843.6669092,384107.6578465593
845.1426408,361062.00322486064
846.6225517000001,338163.1508206549
848.1066392999999,315524.3289994862
849.5949009999999,293031.8247583148
851.0873337999999,271018.12152723875
852.5839347000001,249467.1316309073
854.0847002999999,228473.33789758905
855.5896273,208273.924826504
857.0987119999999,188741.7572744613
858.6119507000001,170146.76381401625
860.1293393999999,152510.40892807208
861.650874,136164.089540954
863.1765502000001,120960.25721488072
864.7063635,107014.17990464352
866.2403094,94338.80468785512
867.778383,82941.22315808732
869.3205793999999,72875.05904464095
870.8668935000001,63972.42718596479
872.4173199999999,56125.52867552271
873.9718536,49276.025414478776
875.5304886,43293.759152407234
877.0932193,38158.80559640124
878.6600399,33686.803771548395
880.2309443,29739.35129457298
881.8059264000001,26120.05528725268
883.3849798,22804.046260033087
884.9680981,19749.757825731333
886.5552747000002,16862.142316048292
888.1465029,14146.787363960331
889.7417757000001,11569.155556185571
891.3410862,9090.57184702946
892.9444273,6825.763449366958
894.5517916000001,4938.185893382236
896.1631719000001,3421.853088742012
897.7785605,2209.524925941165
899.3979498,1303.306992236457
901.0213321,660.9184241964713
902.6486995,256.61736409407644
904.280044,73.1600683633893
905.9153575,34.8168960149347
907.5546319,13.697765457150387
909.1978586,4.806466342541204
910.8450295,-3.375389010866936
912.4961358,-1.945838213316483
914.1511691,2.143651113792037
915.8101205,-5.588724546315235
917.4729813,-0.0847166052511163
919.1397426,-3.16334733574574
920.8103953,0.4415389257802514
922.4849303,4.762325317972104
924.1633386,0.3367390488550703
925.8456109,-2.954393976771409
927.5317378,1.1213101835771502
929.22171,-1.1784167152442042
930.9155179,-0.1959820145603092
932.6131521,2.623685655736
934.3146028,3.508808964553748
936.0198606,-1.4092467872262948
937.7289155,3.357051064217856
939.4417579,-0.1433549982058296
941.1583779,3.4924909085186995
942.8787656,1.7552833197681612
944.6029109,1.0438529115219704
946.3308041,1.61116527028671
948.0624349,-1.6406580822307812
949.7977933,0.0303627546615611
951.5368692,1.0054468414848572
953.2796523,2.8825024563870287
955.0261327,2.038386217692225
956.7762999,-0.9961022088620024
958.5301437,0.3059147389799099
960.2876539,-0.9832630871108788
962.0488201,-2.0465408019560334
963.813632,-3.145091001415989
965.5820793,-1.6500203217407448
967.3541517,-3.931627784697047
969.1298386,2.105018682888055
970.9091298,1.7033514814049606
972.6920149,-2.722886210281976
974.4784835,-0.4818640940231268
976.2685251,-0.3512474515183997
978.0621293,-4.374340339645181
979.8592859,-0.1795326001418748
981.6599843,1.1326973448076738
983.4642142,-1.3699780389486216
985.2719651,1.4194941617328218
987.0832269,-2.0340671427426784
988.897989,0.5951808195257647
990.7162412,0.8251880571268331
992.5379731,0.5697323218961414
994.3631745,-0.1305353913543167
996.191835,-2.5234487474089846
998.0239445,-1.4046168974828863
999.8594926,-1.721517714247634
1001.698469,0.1940873766338494
1003.540864,-2.4828015120146354
1005.386668,-0.2560380296789093
1007.235869,-1.0135027700346122
1009.088458,-1.3882057339090028
1010.944426,-1.4595044843212577
1012.803762,2.695458672122457
1014.666456,-1.7623914860927488
1016.532498,3.563393467847685
1018.401878,0.1326549887647255
1020.274588,2.036567084308109
1022.150616,-4.73185969603898
1024.029953,-1.7019446622146523
1025.912591,-1.3569396311604591
1027.798518,-1.7565954216705633
1029.687726,-0.98573078831702
1031.580205,0.4841937252135517
1033.475945,0.8186167813122637
1035.3749380000002,2.5893260434548018
1037.277175,1.538102537464364
1039.182645,-2.0127188922791954
1041.09134,2.6250894347966467
1043.003251,0.2137404881779373
1044.918368,-0.0573575810121391
1046.836683,0.7728066703273068
