wave,flux
306.2504509,175.83471777028538
306.5604242,238.57918853134208
306.871524,324.64558213507377
307.18375710000004,416.6259102828781
307.4971302,516.0172799049835
307.8116501,635.6350493082291
308.1273236,689.241923429148
308.4441577,741.617044260721
308.7621594,806.1013234828534
309.0813356,872.9421690372376
309.4016935,946.8137381173948
309.7232403,1014.2501635924152
310.04598300000004,1084.333550189956
310.369929,1156.4657107129342
310.6950856,1217.694130983468
311.0214601,1291.2005554975074
311.34906010000003,1356.9042455387855
311.6778931,1419.0620073252237
312.0079665,1482.8085014431954
312.33928810000003,1549.874633118672
312.6718655,1615.442330297208
313.00570639999995,1688.825771015735
313.3408189,1756.6323414293606
313.6772106,1834.8729776970044
314.0148896,1909.228937134236
314.3538639,1986.892149630528
314.6941415,2076.7330288645244
315.0357308,2180.00976904018
315.37863980000003,2287.8953699536805
315.7228769,2416.196045210607
316.0684504,2556.152195987937
316.4153688,2708.334072926776
316.76364069999994,2872.2978749890417
317.1132746,3051.025341691506
317.4642791,3229.7148294143035
317.8166631,3411.888940016597
318.1704352,3595.262880808448
318.5256045,3774.1468738728367
318.8821799,3959.233432248391
319.2401704,4130.895390271946
319.5995851,4304.99526945435
319.96043330000003,4482.5341635396735
320.3227243,4657.63434296177
320.6864673,4835.144687501839
321.0516719,5021.745958078996
321.4183476,5214.081143565095
321.786504,5415.134453301607
322.1561508,5625.4829210900025
322.5272977,5859.190462779842
322.8999548,6100.539926826314
323.2741319,6369.595475175652
323.649839,6667.245993033052
324.0270864,7007.627692853653
324.40588419999995,7379.190112233035
324.7862428,7788.309028949247
325.16817260000005,8264.360911289663
325.5516841,8773.3638339899
325.9367879,9378.977385833568
326.32349480000005,10070.056223652433
326.7118154,10865.472498087096
327.1017607,11760.11321648043
327.4933418,12805.582199319571
327.88656960000003,14002.350929092656
328.2814555,15373.742814260017
328.6780106,16927.165590308246
329.0762465,18701.235779788545
329.47617460000004,20713.62931884532
329.8778065,22943.175767314053
330.281154,25436.441774754883
330.6862289,28179.90320944302
331.0930432,31168.314659401934
331.5016088,34370.46882949615
331.911938,37801.208013900345
332.32404310000004,41378.69741452576
332.7379364,45082.33633769072
333.1536305,48845.09629313274
333.571138,52643.406589568265
333.9904716,56374.76223347968
334.4116443,60012.39683698577
334.834669,63488.369625938525
335.2595588,66778.41264393505
335.686327,69867.64625329702
336.114987,72700.31710630642
336.5455522,75302.5096331752
336.9780363,77681.6660878142
337.41245310000005,79853.88710413121
337.8488164,81822.80732167471
338.28714019999995,83689.60558478006
338.7274388,85509.91148288938
339.1697264,87347.86368006532
339.6140175,89309.13761763631
340.06032660000005,91527.2159851226
340.5086685,94135.07981084847
340.959058,97337.12631742886
341.4115102,101299.4271805808
341.8660403,106118.55762893564
342.32266339999995,111975.887208973
342.7813952,118931.0196648308
343.24225110000003,127078.912207379
343.70524710000007,136206.6611099752
344.17039889999995,146243.6408264288
344.6377228,156946.17951280673
345.1072349,167950.421039951
345.5789517,178954.7483537964
346.0528897,189453.640977641
346.5290657,199205.25523351572
347.0074967,207779.836107789
347.48819960000003,214984.0110007066
347.9711917,220626.59886148208
348.45649060000005,224664.29165791435
348.9441137,227145.00204929308
349.434079,228279.684838
349.9264043,228340.5272331643
350.4211078,227638.1496677069
350.9182079,226535.206827221
351.4177232,225485.8004731626
351.9196722,224835.74966704744
352.42407410000004,225146.72277949
352.9309478,226683.6050938657
353.4403127,229839.6086216582
353.95218839999995,234858.17413753032
354.4665945,242052.34328533465
354.983551,251364.9126432399
355.503078,262751.7186482395
356.025196,276081.2777769243
356.5499253,290826.18193438114
357.077287,306524.5659866141
357.6073018,322680.0646619076
358.1399912,338517.31545781967
358.6753765,353507.87381080835
359.2134795,367180.81105351896
359.754322,379027.20976123365
360.2979263,388983.3104330084
360.8443147,397061.608336656
361.3935098,403511.4767135851
361.9455346,408699.3442205744
362.5004122,413057.1179061794
363.058166,417186.9668716856
363.61881960000005,421589.0661975069
364.1823969,426918.9566881042
364.7489221,433256.6583872309
365.3184196,441094.4168674461
365.8909141,450276.2891586341
366.4664305,460867.0379793722
367.0449943,472608.8191977556
367.6266307,485041.402005392
368.2113658,498080.0257924254
368.7992255,510999.25420202326
369.3902363,523468.40449580393
369.9844249,535030.1717860625
370.5818182,545549.4093787178
371.1824436,554703.2870523798
371.7863286000001,562560.5580828236
372.3935012,569118.151446564
373.0039896,574630.3354453754
373.6178223,579549.8516215513
374.2350283,584050.7403556844
374.8556368,588332.3671736981
375.4796772,593138.8538312778
376.1071796,598484.8645466303
376.7381741,604610.7590027404
377.3726913,611467.1833408604
378.0107622,618930.0271127031
378.652418,627258.1455987717
379.2976904,636181.1886503783
379.9466115,645298.7953687996
380.5992136,654823.4375293254
381.2555296,664243.4668621747
381.9155926,673610.8279753844
382.5794362,683063.994282449
383.2470943,692385.0129372868
383.9186014,701663.2910453225
384.5939922,710979.7971513544
385.2733019,720364.1368266075
385.9565661,730034.759386827
386.6438209,740280.3790722706
387.3351027,751720.3042119538
388.0304484,764937.3216373897
388.7298955,780420.372302257
389.4334817,799032.4790873028
390.1412452,822441.8877535234
390.853225,851627.9338539974
391.56946,886864.911118718
392.2899901,928542.009116192
393.0148555,976359.5731377658
393.7440968,1029389.8619234576
394.4777551,1086974.9989718844
395.2158722,1148419.853720064
395.9584903,1209438.4731934604
396.7056521,1269222.6597344228
397.457401,1326072.9853129114
398.2137806,1379310.5071612538
398.9748353,1427812.354739
399.7406101,1471206.4834031244
400.5111505,1509186.2249394816
401.2865024,1541273.7680650782
402.0667126,1568805.6788743504
402.8518283,1592182.2362750566
403.6418973,1611500.474041874
404.436968,1627283.9093477775
405.2370896,1639970.9833514255
406.0423117,1650375.7747936568
406.8526847,1659573.4292691688
407.66825960000006,1668528.646883585
408.4890879,1678302.5999833012
409.3152221,1690373.3077633043
410.1467152,1705655.117436312
410.9836208,1725312.6985042612
411.8259934,1750373.577753025
412.673888,1781134.2375285109
413.5273605,1817637.9249722185
414.38646760000006,1859384.2156005555
415.2512664,1905126.8846770644
416.1218152,1953783.751515881
416.9981727,2004094.049724952
417.8803987,2054550.0159469584
418.7685535,2103519.8843795056
419.6626985,2150239.7864305954
420.5628957,2194076.7715427787
421.4692081,2235399.5254497062
422.3816994,2273727.2722924515
423.3004343,2311161.906417224
424.2254783,2347430.0219125208
425.1568978,2385080.484762299
426.0947602,2425409.8895571968
427.0391337,2468791.864335824
427.9900874,2516502.068948576
428.9476917,2568728.360741245
429.9120175,2625230.348944278
430.8831369,2684527.5581967747
431.8611232,2745885.6371380584
432.8460504,2808216.012008727
433.8379937,2869135.4951631627
434.8370293,2928521.8437728058
435.8432345,2985378.923132713
436.8566878,3040862.765659027
437.8774686,3095342.85588749
438.9056575,3151428.4534223136
439.9413364,3210562.7783539826
440.9845882,3275155.4500282537
442.035497,3347566.048912831
443.0941482,3429546.3785237838
444.1606283,3523467.192832976
445.23502520000005,3630029.729481202
446.317428,3750081.465005497
447.407927,3884198.9860379854
448.5066141,4032163.84920544
449.6135822,4192210.728704624
450.7289258,4364379.613107313
451.85274060000006,4548164.196111883
452.9851239,4737751.358459828
454.1261744,4928159.676271036
455.2759921,5115785.200408005
456.4346788,5294532.053000888
457.6023374,5459687.271412884
458.7790727,5606982.593078564
459.9649909,5732676.468042394
461.1601998,5832218.031675391
462.364809,5908464.876281339
463.5789295,5963140.575655105
464.8026741000001,6000824.848838364
466.0361575,6024320.581767527
467.2794956999999,6035964.482671738
468.5328070000001,6041070.974471446
469.7962111000001,6041052.995713288
471.0698299,6041309.740188957
472.3537868,6041672.134050472
473.6482074,6041470.759969606
474.9532192,6041066.994366183
476.2689517,6041184.1821329575
477.5955362,6041202.168158279
478.93310639999993,6041438.272785834
480.2817979,6041654.770487833
481.6417484,6041316.768872616
483.01309800000007,6041512.858671667
484.3959889,6041107.037431697
485.7905654,6041275.995987353
487.1969743,6041820.888560165
488.6153648,6041678.721883277
490.0458884,6041376.076687832
491.488699,6041065.096703888
492.943953,6041275.466565493
494.4118094,6041558.121402943
495.8924299,6041779.518071032
497.3859785,6041276.80520073
498.8926222,6041039.616065014
500.4125306,6041348.203720996
501.9458762,6041214.301518503
503.4928341,6041104.046977334
505.0535827,6041507.428766215
506.628303,6041476.878386582
508.2171791999999,6041706.096609356
509.8203986,6041181.442867798
511.4381515,6041520.842147933
513.0706316000001,6040822.376075629
514.7180356,6041529.688904089
516.3805639,6041425.513115534
518.0584200000001,6041041.880098677
519.7518110000001,6041050.322517362
521.4609475999999,6041218.90862462
523.186044,6041056.073961657
524.927318,6041171.1832669135
526.6849915,6041226.640017906
528.45929,6041726.55353077
530.2504428000001,6041687.242976661
532.0586836,6041605.5034631
533.8842498,6041460.372244181
535.7273833,6041478.587673189
537.5883299,6041331.084012876
539.46734,6040936.960631182
541.3646685,6041624.277196988
543.2805745000001,6041441.582778774
545.2153222000001,6041321.673435836
547.1691801,6041150.244383132
549.1424218999999,6041226.912446572
551.1353259,6041707.30265864
553.1481756000001,6041222.73348905
555.1812597,6041223.829868556
557.2348721,6041579.388271052
559.3093121,6041538.0367078725
561.4048845,6041151.775190139
563.5218996,6041412.990462819
565.6606737000001,6041165.634541648
567.8215287,6041153.289003
570.0047927,6041199.97528984
572.2107997,6041600.785348224
574.4398902,6041488.752211473
576.692411,6041053.240371947
578.9687155,6041638.03686201
581.2691637,6041794.655084856
583.5941226,6041397.720552185
585.943966,6041401.587879088
588.3190752,6041226.426897059
590.7198384999999,6041361.043992131
593.1466518,6041597.21396547
595.5999188999999,6041441.3993496215
598.0800512,6041691.049735134
600.5874682,6041221.073417335
603.1225977000001,6041422.982756549
605.6858758999999,6041550.110572443
608.2777476,6041532.523008447
610.8986664,6041260.231451644
613.549095,6041271.768324569
616.2295054,6041551.51987718
618.940379,6042003.257738583
621.6822068,6040950.03056971
624.4554901,6042409.3106805775
627.2607402000001,6041664.9021240985
630.0984786,6040130.3111573765
632.9692378999999,6041353.888542808
635.8735614,6041044.298174148
638.8120038,6043059.874693992
641.7851312999999,6041412.758530215
644.7935217999999,6042061.15585974
647.8377654,6041013.895656708
650.9184646000001,6043200.753144917
654.0362346,6042862.793290732
657.1917038,6043033.759409522
660.3855139,6039584.884700038
663.6183202999999,6043089.284306368
666.8907926,6042843.4652276775
670.2036149,6041689.507387888
673.557486,6039957.72479169
676.9531202000001,6042506.94463557
680.3912472999999,6039996.945767791
683.2806465,6041136.6792547135
683.8726131,6041136.825957367
684.2449952000001,6041656.735559247
685.2124921,6041453.935218197
686.1831509,6041477.807051958
687.1569850999999,6041447.407197123
688.1340083,6040951.0301357685
689.1142341,6041551.977994118
690.097676,6041295.175980351
691.0843474999999,6041496.867909148
692.0742622,6041330.458684293
693.0674334,6041360.913656178
694.0638748,6041843.168072684
695.0635996,6041188.541090461
696.0666212,6041507.856637272
697.0729531000001,6041130.160638803
698.0826086,6041226.637563645
699.0956008999999,6041517.02129734
700.1119432999999,6041433.962947777
701.1316491,6041447.719601933
702.1547314,6041815.003225118
703.1812034,6040981.717873668
704.2110782000001,6040967.6351438975
705.2443688999999,6041738.733177078
706.2810885,6041548.596795866
707.3212499,6041271.804002987
708.3648661000001,6041728.899340636
709.41195,6041584.068917628
710.4625143999999,6041240.915375478
711.5165721,6041437.214353087
712.5741357,6041658.888258887
713.6352181,6041853.817453749
714.6998317000001,6041671.885354993
715.7679891,6041130.504671548
716.8397027999999,6041436.080231153
717.9149852,6041318.773342314
718.9938487000001,6041110.558645267
720.0763055,6041722.756696959
721.162368,6041509.564044408
722.2520481,6041873.071762422
723.3453581,6041526.665576748
724.4423098,6041324.880358534
725.5429153,6041484.095598589
726.6471863,6041026.719533288
727.7551346,6041408.608434394
728.866772,6041784.03417271
729.9821099,6041725.843732835
731.1011599,6041513.788835146
732.2239335,6041210.168393136
733.3504419,6041645.331585477
734.4806963999999,6040885.036336835
735.6147081,6041689.546074187
736.7524882,6041305.1218696935
737.8940474,6041200.265325408
739.0393967,6041800.426085106
740.1885467999999,6041282.587589228
741.3415084,6041523.938211418
742.498292,6041349.3987891525
743.658908,6041682.543470183
744.8233667999999,6041026.177558086
745.9916785,6041609.620689474
747.1638532000001,6041236.894622227
748.3399009,6041267.287163357
749.5198315,6040997.277771267
750.7036546,6041894.717999257
751.89138,6041019.960727064
753.0830171,6041294.731642417
754.2785752999999,6041196.609560045
755.4780638,6040896.320479778
756.6814917,6041697.931365322
757.8888678999999,6041314.892698192
759.1002014999999,6041291.76002809
760.3155009,6041289.917748722
761.5347749,6036780.657062923
762.7580318,6023964.05980649
763.98528,5997712.657800937
765.2165276000001,5955951.308974412
766.4517825,5895347.040713949
767.6910527000001,5813382.031961722
768.9343458999999,5705559.672415217
770.1816697,5569875.59638177
771.4330313999999,5410181.127787641
772.6884382999999,5231843.763107789
773.9478975,5039085.463048446
775.211416,4832980.524139859
776.4790005,4616379.994471286
777.7506578,4391418.445752092
779.0263942,4162201.13336868
780.3062162,3932472.826492075
781.5901297,3704004.682353642
782.8781409,3478031.841765556
784.1702554999999,3257889.636634962
785.4664793,3047456.7490209923
786.7668176,2849790.805837604
788.0712758,2667880.449633716
789.3798591,2503522.8423466543
790.6925722999999,2356380.8811159288
792.0094204,2226130.71682236
793.3304079,2110622.710441304
794.6555392000001,2007214.1856742024
795.9848187000001,1913150.76315576
797.3182504,1825846.586434492
798.6558382999999,1742977.564362195
799.9975861,1663641.2775876955
801.3434973,1585741.904297726
802.6935752999999,1510419.1496726065
804.0478232999999,1437564.072187647
805.4062443,1367628.7720231244
806.7688411,1301695.3845820487
808.1356164,1240120.060906805
809.5065726,1183657.899297768
810.881712,1132334.1536698125
812.2610367000001,1085876.9113334347
813.6445485,1043587.3167137622
815.0322493,1004697.6743276272
816.4241404,968409.006576656
817.8202233,933318.2401410504
819.2204991,899116.5702209264
820.6249687999999,864897.1098753907
822.0336331,830232.955694159
823.4464925999999,794968.3611602952
824.8635477000001,759564.773113662
826.2847987,724118.5188902372
827.7102456,689123.515936417
829.1398882,655092.694732433
830.5737261,622111.7128145909
832.0117589,590517.13129382
833.4539857000001,560695.1867076791
834.9004057999999,532372.5912337779
836.3510179,505560.8878744025
837.8058209,479851.1261874744
839.2648132999999,455164.5877465536
840.7279934000001,431060.8606945975
842.1953594,407389.4142823333
843.6669092,384107.6578465593
845.1426408,361062.00322486064
846.6225517000001,338163.1508206549
848.1066392999999,315524.3289994862
849.5949009999999,293031.8247583148
851.0873337999999,271018.12152723875
852.5839347000001,249467.1316309073
854.0847002999999,228473.33789758905
855.5896273,208273.924826504
857.0987119999999,188741.7572744613
858.6119507000001,170146.76381401625
860.1293393999999,152510.40892807208
861.650874,136164.089540954
863.1765502000001,120960.25721488072
864.7063635,107014.17990464352
866.2403094,94338.80468785512
867.778383,82941.22315808732
869.3205793999999,72875.05904464095
870.8668935000001,63972.42718596479
872.4173199999999,56125.52867552271
873.9718536,49276.025414478776
875.5304886,43293.759152407234
877.0932193,38158.80559640124
878.6600399,33686.803771548395
880.2309443,29739.35129457298
881.8059264000001,26120.05528725268
883.3849798,22804.046260033087
884.9680981,19749.757825731333
886.5552747000002,16862.142316048292
888.1465029,14146.787363960331
889.7417757000001,11569.155556185571
891.3410862,9090.57184702946
892.9444273,6825.763449366958
894.5517916000001,4938.185893382236
896.1631719000001,3421.853088742012
897.7785605,2209.524925941165
899.3979498,1303.306992236457
901.0213321,660.9184241964713
902.6486995,256.61736409407644
904.280044,73.1600683633893
905.9153575,34.8168960149347
907.5546319,13.697765457150387
909.1978586,4.806466342541204
910.8450295,-3.375389010866936
912.4961358,-1.945838213316483
914.1511691,2.143651113792037
915.8101205,-5.588724546315235
917.4729813,-0.0847166052511163
919.1397426,-3.16334733574574
920.8103953,0.4415389257802514
922.4849303,4.762325317972104
924.1633386,0.3367390488550703
925.8456109,-2.954393976771409
927.5317378,1.1213101835771502
929.22171,-1.1784167152442042
930.9155179,-0.1959820145603092
932.6131521,2.623685655736
934.3146028,3.508808964553748
936.0198606,-1.4092467872262948
937.7289155,3.357051064217856
939.4417579,-0.1433549982058296
941.1583779,3.4924909085186995
942.8787656,1.7552833197681612
944.6029109,1.0438529115219704
946.3308041,1.61116527028671
948.0624349,-1.6406580822307812
949.7977933,0.0303627546615611
951.5368692,1.0054468414848572
953.2796523,2.8825024563870287
955.0261327,2.038386217692225
956.7762999,-0.9961022088620024
958.5301437,0.3059147389799099
960.2876539,-0.9832630871108788
962.0488201,-2.0465408019560334
963.813632,-3.145091001415989
965.5820793,-1.6500203217407448
967.3541517,-3.931627784697047
969.1298386,2.105018682888055
970.9091298,1.7033514814049606
972.6920149,-2.722886210281976
974.4784835,-0.4818640940231268
976.2685251,-0.3512474515183997
978.0621293,-4.374340339645181
979.8592859,-0.1795326001418748
981.6599843,1.1326973448076738
983.4642142,-1.3699780389486216
985.2719651,1.4194941617328218
987.0832269,-2.0340671427426784
988.897989,0.5951808195257647
990.7162412,0.8251880571268331
992.5379731,0.5697323218961414
994.3631745,-0.1305353913543167
996.191835,-2.5234487474089846
998.0239445,-1.4046168974828863
999.8594926,-1.721517714247634
1001.698469,0.1940873766338494
1003.540864,-2.4828015120146354
1005.386668,-0.2560380296789093
1007.235869,-1.0135027700346122
1009.088458,-1.3882057339090028
1010.944426,-1.4595044843212577
1012.803762,2.695458672122457
1014.666456,-1.7623914860927488
1016.532498,3.563393467847685
1018.401878,0.1326549887647255
1020.274588,2.036567084308109
1022.150616,-4.73185969603898
1024.029953,-1.7019446622146523
1025.912591,-1.3569396311604591
1027.798518,-1.7565954216705633
1029.687726,-0.98573078831702
1031.580205,0.4841937252135517
1033.475945,0.8186167813122637
1035.3749380000002,2.5893260434548018
1037.277175,1.538102537464364
1039.182645,-2.0127188922791954
1041.09134,2.6250894347966467
1043.003251,0.2137404881779373
1044.918368,-0.0573575810121391
1046.836683,0.7728066703273068
1048.758188,3.079024708981095
1050.682872,1.7863592040068756
1052.610728,-0.9875552316154448
1054.541747,0.8450681541709223
1056.4759210000002,0.5606905164531844
1058.41324,2.214747155831732
1060.353697,-0.1533507103623259
1062.297282,-3.1936625878301363
1064.243989,-6.004355355014276
1066.193809,1.6975392031795646
1068.146734,-1.8391697537208151
1070.102755,-1.0996296138543131
1072.061865,0.8926713113443641
1074.024056,2.2107648134886464
1075.989321,-2.4650492132498067
1077.957651,0.1139664012951578
1079.92904,-0.1832930190834896
1081.9034800000002,-0.0468904277091718
