wave,flux
306.2504509,334.0247941825245
306.5604242,477.1000706743935
306.871524,637.6321490661848
307.18375710000004,811.2654860800853
307.4971302,1005.8790234073696
307.8116501,1201.2327929366968
308.1273236,1266.4032651273478
308.4441577,1343.7394130082664
308.7621594,1434.314470751676
309.0813356,1541.3719829022448
309.4016935,1667.2391566331771
309.7232403,1813.6867278105249
310.04598300000004,1978.8479778011229
310.369929,2164.271047593042
310.6950856,2363.1684479940536
311.0214601,2565.479848000275
311.34906010000003,2763.7648044454872
311.6778931,2973.143218484289
312.0079665,3186.093401841361
312.33928810000003,3411.390571436319
312.6718655,3641.5123377901673
313.00570639999995,3892.005426906543
313.3408189,4159.522580621424
313.6772106,4452.606383075197
314.0148896,4776.405510506605
314.3538639,5127.215043393189
314.6941415,5498.535258560061
315.0357308,5866.357094158934
315.37863980000003,6244.799272362946
315.7228769,6635.176757027325
316.0684504,7029.987439370007
316.4153688,7437.118667926256
316.76364069999994,7838.331298662175
317.1132746,8256.434036753708
317.4642791,8697.59749247869
317.8166631,9167.286575188646
318.1704352,9673.307448929749
318.5256045,10214.964647690951
318.8821799,10751.767053061889
319.2401704,11330.274148691762
319.5995851,11910.649652989909
319.96043330000003,12503.55863223172
320.3227243,13097.320578674296
320.6864673,13678.170608270788
321.0516719,14228.312291948752
321.4183476,14768.681145885304
321.786504,15324.121658926082
322.1561508,15870.306857980431
322.5272977,16458.137500645575
322.8999548,17070.238140796904
323.2741319,17738.22293191551
323.649839,18475.724310738857
324.0270864,19297.322273773232
324.40588419999995,20203.68720909492
324.7862428,21171.029283887125
325.16817260000005,22294.981250064764
325.5516841,23472.48749703965
325.9367879,24746.890957644628
326.32349480000005,26162.89019210052
326.7118154,27698.659360536705
327.1017607,29400.738926612263
327.4933418,31268.86162330222
327.88656960000003,33404.56429246737
328.2814555,35745.959533224035
328.6780106,38424.37976553672
329.0762465,41454.51133917433
329.47617460000004,44846.807962879735
329.8778065,48668.61355192432
330.281154,52987.1415440654
330.6862289,57791.538586216535
331.0930432,63094.9267767309
331.5016088,68939.14189372705
331.911938,75275.0297998247
332.32404310000004,82111.8758609973
332.7379364,89443.77077929057
333.1536305,97192.9106025114
333.571138,105296.77296543024
333.9904716,113653.40606062335
334.4116443,122182.13760619232
334.834669,130683.1134731718
335.2595588,139170.85281329873
335.686327,147493.08227191202
336.114987,155622.54838072654
336.5455522,163427.17232501812
336.9780363,171008.31489747544
337.41245310000005,178370.29217169693
337.8488164,185610.989256804
338.28714019999995,192865.22874649309
338.7274388,200046.6048865916
339.1697264,207552.5846707324
339.6140175,215215.60832264056
340.06032660000005,223171.3775123932
340.5086685,231445.3585045893
340.959058,239992.8464347741
341.4115102,248858.97918045515
341.8660403,257946.32846112712
342.32266339999995,267627.2069107057
342.7813952,278061.5901224597
343.24225110000003,289647.0568446675
343.70524710000007,302886.07140211645
344.17039889999995,318353.9968169307
344.6377228,336585.37231530464
345.1072349,358039.849428723
345.5789517,382889.79582565546
346.0528897,411581.5275609656
346.5290657,443750.6319138177
347.0074967,478899.18854997295
347.48819960000003,516397.90828374
347.9711917,555670.2509425372
348.45649060000005,595720.5426370109
348.9441137,636067.0649449689
349.434079,676019.7215250022
349.9264043,715149.0131422231
350.4211078,753582.7810191631
350.9182079,791279.102140725
351.4177232,828807.1076842204
351.9196722,866151.6632523581
352.42407410000004,903673.968847524
352.9309478,941078.7357457128
353.4403127,978582.0279743156
353.95218839999995,1015465.2644758078
354.4665945,1051501.8022504004
354.983551,1085854.2730997992
355.503078,1118406.7979972698
356.025196,1148625.5264016124
356.5499253,1176589.0222467673
357.077287,1202643.2116294813
357.6073018,1226844.5376376335
358.1399912,1249964.2607569543
358.6753765,1272372.08308745
359.2134795,1294376.72406803
359.754322,1315794.4965946334
360.2979263,1336498.5578232426
360.8443147,1355732.313874326
361.3935098,1372542.7689842684
361.9455346,1386892.9466493195
362.5004122,1397656.407896157
363.058166,1404884.4785338622
363.61881960000005,1408871.553275196
364.1823969,1410554.0724695688
364.7489221,1411453.1608623709
365.3184196,1413708.335450724
365.8909141,1418510.18663156
366.4664305,1428269.4474634237
367.0449943,1444485.5225488695
367.6266307,1467574.7463245771
368.2113658,1497760.2708847537
368.7992255,1534365.3665525103
369.3902363,1574960.8024758678
369.9844249,1617569.9852265588
370.5818182,1659462.7157603465
371.1824436,1697730.518213855
371.7863286000001,1729430.301481325
372.3935012,1753187.0398605585
373.0039896,1767232.6531228789
373.6178223,1771673.9131280724
374.2350283,1766945.6125730304
374.8556368,1754347.482291366
375.4796772,1736826.9530338822
376.1071796,1716317.1840981909
376.7381741,1696000.320451119
377.3726913,1678643.548222556
378.0107622,1666665.5311504574
378.652418,1661609.2762192818
379.2976904,1664544.0589347684
379.9466115,1675544.8091238432
380.5992136,1694645.138667924
381.2555296,1720126.460922346
381.9155926,1750616.8672860654
382.5794362,1784122.3541642688
383.2470943,1818872.489937481
383.9186014,1852851.123683219
384.5939922,1884293.5992838645
385.2733019,1912728.320005904
385.9565661,1937826.9903155973
386.6438209,1959959.2537652368
387.3351027,1980047.0665207675
388.0304484,2000780.4710797367
388.7298955,2023802.9885503468
389.4334817,2051242.4302595688
390.1412452,2086924.9057375973
390.853225,2132752.0502043017
391.56946,2190118.5057332283
392.2899901,2260299.7083247253
393.0148555,2344095.213588903
393.7440968,2439936.981859345
394.4777551,2546734.7170220697
395.2158722,2662140.3155579395
395.9584903,2782842.7870082604
396.7056521,2905186.0671141087
397.457401,3026021.9191845427
398.2137806,3143053.768571405
398.9748353,3252031.514972104
399.7406101,3350392.699771628
400.5111505,3436288.6243241667
401.2865024,3507375.979999707
402.0667126,3562650.312310504
402.8518283,3601469.6988791623
403.6418973,3625132.0994488136
404.436968,3633887.7047976064
405.2370896,3630853.875698327
406.0423117,3619435.564880105
406.8526847,3605308.7521727504
407.66825960000006,3593163.5183168515
408.4890879,3588631.058977259
409.3152221,3598578.5658673383
410.1467152,3628583.200944456
410.9836208,3683072.7237051376
411.8259934,3765963.993328637
412.673888,3878036.8050333606
413.5273605,4021565.4205294233
414.38646760000006,4193136.23625579
415.2512664,4388801.58658864
416.1218152,4600603.602717525
416.9981727,4819603.43677859
417.8803987,5037870.654751118
418.7685535,5246737.439014833
419.6626985,5438143.469169525
420.5628957,5605219.040895475
421.4692081,5741571.827004112
422.3816994,5846992.36391848
423.3004343,5924534.343327307
424.2254783,5978505.048644758
425.1568978,6012280.916941932
426.0947602,6030962.924210613
427.0391337,6039424.973153354
427.9900874,6041111.508198565
428.9476917,6040906.064196465
429.9120175,6041557.468866766
430.8831369,6041487.872410198
431.8611232,6041292.642046572
432.8460504,6041400.983686687
433.8379937,6041490.202319092
434.8370293,6041455.038156589
435.8432345,6041557.308955179
436.8566878,6041387.144751224
437.8774686,6041663.062601735
438.9056575,6041721.009857974
439.9413364,6041377.1042521
440.9845882,6041433.051064627
442.035497,6041240.322527672
443.0941482,6041505.743605719
444.1606283,6041278.631687757
445.23502520000005,6041287.014489687
446.317428,6041404.581231229
447.407927,6041183.474246618
448.5066141,6041366.421424981
449.6135822,6041445.684991453
450.7289258,6041787.991710802
451.85274060000006,6041095.12387477
452.9851239,6041096.49467993
454.1261744,6041517.786703849
455.2759921,6041537.5825696215
456.4346788,6040963.930604905
457.6023374,6041769.356228207
458.7790727,6041682.984232297
459.9649909,6041851.661741898
461.1601998,6041329.461292597
462.364809,6041517.84133325
463.5789295,6041577.298592016
464.8026741000001,6041711.618202651
466.0361575,6041424.426909423
467.2794956999999,6041359.32412775
468.5328070000001,6041684.902641972
469.7962111000001,6041451.71727344
471.0698299,6041186.363490872
472.3537868,6041386.255258184
473.6482074,6041636.297645558
474.9532192,6041806.087067982
476.2689517,6041423.005371328
477.5955362,6041274.3939662585
478.93310639999993,6041552.488054394
480.2817979,6041655.587489832
481.6417484,6041293.5213111965
483.01309800000007,6040864.570307685
484.3959889,6041858.733882055
485.7905654,6041397.299050898
487.1969743,6041743.086690421
488.6153648,6041365.146440852
490.0458884,6041860.470894558
491.488699,6041056.079182179
492.943953,6041528.939713603
494.4118094,6041264.03115618
495.8924299,6041260.360193268
497.3859785,6041614.752381926
498.8926222,6041286.516394854
500.4125306,6041268.24198979
501.9458762,6041155.33624959
503.4928341,6041933.922194572
505.0535827,6041501.429834792
506.628303,6040998.246248755
508.2171791999999,6041321.956885328
509.8203986,6041025.287205313
511.4381515,6041447.591273925
513.0706316000001,6041572.624181068
514.7180356,6041106.560009328
516.3805639,6041450.954700102
518.0584200000001,6041345.43255172
519.7518110000001,6041413.004066995
521.4609475999999,6041556.570842021
523.186044,6041348.984025442
524.927318,6041817.563437785
526.6849915,6041565.070084807
528.45929,6041186.044327221
530.2504428000001,6041346.834319293
532.0586836,6041786.74337468
533.8842498,6041327.570712367
535.7273833,6041387.079894218
537.5883299,6041648.848696271
539.46734,6040878.690968103
541.3646685,6041065.815299986
543.2805745000001,6041377.445195952
545.2153222000001,6041330.671511408
547.1691801,6041156.116109998
549.1424218999999,6041577.507377027
551.1353259,6041619.225625919
553.1481756000001,6040874.526384945
555.1812597,6041430.263324828
557.2348721,6041380.403712347
559.3093121,6040953.890576034
561.4048845,6040933.021118012
563.5218996,6041293.8836123
565.6606737000001,6041126.32925388
567.8215287,6041180.296725888
570.0047927,6041345.054745653
572.2107997,6041115.199810831
574.4398902,6041543.502390478
576.692411,6041626.956342909
578.9687155,6041416.508878658
581.2691637,6041343.106109982
583.5941226,6041594.281120158
585.943966,6041599.022063209
588.3190752,6041884.924787371
590.7198384999999,6041359.196851224
593.1466518,6041217.6064543575
595.5999188999999,6041035.24998964
598.0800512,6041365.524577428
600.5874682,6041622.401890079
603.1225977000001,6041654.218489834
605.6858758999999,6041253.663119642
608.2777476,6041267.863706205
610.8986664,6041317.024462741
613.549095,6041640.039222253
616.2295054,6041420.854924127
618.940379,6041773.181045863
621.6822068,6042432.805466329
624.4554901,6041459.034425188
627.2607402000001,6039251.794260208
630.0984786,6041426.296378984
632.9692378999999,6040459.791501072
635.8735614,6040402.390590773
638.8120038,6040943.588213133
641.7851312999999,6040374.764889819
644.7935217999999,6041739.729182133
647.8377654,6040213.454054719
650.9184646000001,6041006.257682933
654.0362346,6042046.958697222
657.1917038,6043624.136081821
660.3855139,6041471.99179566
663.6183202999999,6041298.000999997
666.8907926,6040700.878475889
670.2036149,6042068.208545039
673.557486,6039242.475515332
676.6172101,6041406.773123708
676.9531202000001,6041404.027207352
677.5599033,6041372.668337625
678.5056492000001,6041317.116322317
679.4544612999999,6041289.512202607
680.4063535,6041134.786884902
681.3613392999999,6041533.216924714
682.3194324,6041266.774412323
683.2806465,6041136.6792547135
684.2449952000001,6041656.735559247
685.2124921,6041453.935218197
686.1831509,6041477.807051958
687.1569850999999,6041447.407197123
688.1340083,6040951.0301357685
689.1142341,6041551.977994118
690.097676,6041295.175980351
691.0843474999999,6041496.867909148
692.0742622,6041330.458684293
693.0674334,6041360.913656178
694.0638748,6041843.168072684
695.0635996,6041188.541090461
696.0666212,6041507.856637272
697.0729531000001,6041130.160638803
698.0826086,6041226.637563645
699.0956008999999,6041517.02129734
700.1119432999999,6041433.962947777
701.1316491,6041447.719601933
702.1547314,6041815.003225118
703.1812034,6040981.717873668
704.2110782000001,6040967.6351438975
705.2443688999999,6041738.733177078
706.2810885,6041548.596795866
707.3212499,6041271.804002987
708.3648661000001,6041728.899340636
709.41195,6041584.068917628
710.4625143999999,6041240.915375478
711.5165721,6041437.214353087
712.5741357,6041658.888258887
713.6352181,6041853.817453749
714.6998317000001,6041671.885354993
715.7679891,6041130.504671548
716.8397027999999,6041436.080231153
717.9149852,6041318.773342314
718.9938487000001,6041110.558645267
720.0763055,6041722.756696959
721.162368,6041509.564044408
722.2520481,6041873.071762422
723.3453581,6041526.665576748
724.4423098,6041324.880358534
725.5429153,6041484.095598589
726.6471863,6041026.719533288
727.7551346,6041408.608434394
728.866772,6041784.03417271
729.9821099,6041725.843732835
731.1011599,6041513.788835146
732.2239335,6041210.168393136
733.3504419,6041645.331585477
734.4806963999999,6040885.036336835
735.6147081,6041689.546074187
736.7524882,6041305.1218696935
737.8940474,6041200.265325408
739.0393967,6041800.426085106
740.1885467999999,6041282.587589228
741.3415084,6041523.938211418
742.498292,6041349.3987891525
743.658908,6041682.543470183
744.8233667999999,6041026.177558086
745.9916785,6041609.620689474
747.1638532000001,6041236.894622227
748.3399009,6041267.287163357
749.5198315,6040997.277771267
750.7036546,6041894.717999257
751.89138,6041019.960727064
753.0830171,6041294.731642417
754.2785752999999,6041196.609560045
755.4780638,6040896.320479778
756.6814917,6041697.931365322
757.8888678999999,6041314.892698192
759.1002014999999,6041291.76002809
760.3155009,6041289.917748722
761.5347749,6036780.657062923
762.7580318,6023964.05980649
763.98528,5997712.657800937
765.2165276000001,5955951.308974412
766.4517825,5895347.040713949
767.6910527000001,5813382.031961722
768.9343458999999,5705559.672415217
770.1816697,5569875.59638177
771.4330313999999,5410181.127787641
772.6884382999999,5231843.763107789
773.9478975,5039085.463048446
775.211416,4832980.524139859
776.4790005,4616379.994471286
777.7506578,4391418.445752092
779.0263942,4162201.13336868
780.3062162,3932472.826492075
781.5901297,3704004.682353642
782.8781409,3478031.841765556
784.1702554999999,3257889.636634962
785.4664793,3047456.7490209923
786.7668176,2849790.805837604
788.0712758,2667880.449633716
789.3798591,2503522.8423466543
790.6925722999999,2356380.8811159288
792.0094204,2226130.71682236
793.3304079,2110622.710441304
794.6555392000001,2007214.1856742024
795.9848187000001,1913150.76315576
797.3182504,1825846.586434492
798.6558382999999,1742977.564362195
799.9975861,1663641.2775876955
801.3434973,1585741.904297726
802.6935752999999,1510419.1496726065
804.0478232999999,1437564.072187647
805.4062443,1367628.7720231244
806.7688411,1301695.3845820487
808.1356164,1240120.060906805
809.5065726,1183657.899297768
810.881712,1132334.1536698125
812.2610367000001,1085876.9113334347
813.6445485,1043587.3167137622
815.0322493,1004697.6743276272
816.4241404,968409.006576656
817.8202233,933318.2401410504
819.2204991,899116.5702209264
820.6249687999999,864897.1098753907
822.0336331,830232.955694159
823.4464925999999,794968.3611602952
824.8635477000001,759564.773113662
826.2847987,724118.5188902372
827.7102456,689123.515936417
829.1398882,655092.694732433
830.5737261,622111.7128145909
832.0117589,590517.13129382
833.4539857000001,560695.1867076791
834.9004057999999,532372.5912337779
836.3510179,505560.8878744025
837.8058209,479851.1261874744
839.2648132999999,455164.5877465536
840.7279934000001,431060.8606945975
842.1953594,407389.4142823333
843.6669092,384107.6578465593
845.1426408,361062.00322486064
846.6225517000001,338163.1508206549
848.1066392999999,315524.3289994862
849.5949009999999,293031.8247583148
851.0873337999999,271018.12152723875
852.5839347000001,249467.1316309073
854.0847002999999,228473.33789758905
855.5896273,208273.924826504
857.0987119999999,188741.7572744613
858.6119507000001,170146.76381401625
860.1293393999999,152510.40892807208
861.650874,136164.089540954
863.1765502000001,120960.25721488072
864.7063635,107014.17990464352
866.2403094,94338.80468785512
867.778383,82941.22315808732
869.3205793999999,72875.05904464095
870.8668935000001,63972.42718596479
872.4173199999999,56125.52867552271
873.9718536,49276.025414478776
875.5304886,43293.759152407234
877.0932193,38158.80559640124
878.6600399,33686.803771548395
880.2309443,29739.35129457298
881.8059264000001,26120.05528725268
883.3849798,22804.046260033087
884.9680981,19749.757825731333
886.5552747000002,16862.142316048292
888.1465029,14146.787363960331
889.7417757000001,11569.155556185571
891.3410862,9090.57184702946
892.9444273,6825.763449366958
894.5517916000001,4938.185893382236
896.1631719000001,3421.853088742012
897.7785605,2209.524925941165
899.3979498,1303.306992236457
901.0213321,660.9184241964713
902.6486995,256.61736409407644
904.280044,73.1600683633893
905.9153575,34.8168960149347
907.5546319,13.697765457150387
909.1978586,4.806466342541204
910.8450295,-3.375389010866936
912.4961358,-1.945838213316483
914.1511691,2.143651113792037
915.8101205,-5.588724546315235
917.4729813,-0.0847166052511163
919.1397426,-3.16334733574574
920.8103953,0.4415389257802514
922.4849303,4.762325317972104
924.1633386,0.3367390488550703
925.8456109,-2.954393976771409
927.5317378,1.1213101835771502
929.22171,-1.1784167152442042
930.9155179,-0.1959820145603092
932.6131521,2.623685655736
934.3146028,3.508808964553748
936.0198606,-1.4092467872262948
937.7289155,3.357051064217856
939.4417579,-0.1433549982058296
941.1583779,3.4924909085186995
942.8787656,1.7552833197681612
944.6029109,1.0438529115219704
946.3308041,1.61116527028671
948.0624349,-1.6406580822307812
949.7977933,0.0303627546615611
951.5368692,1.0054468414848572
953.2796523,2.8825024563870287
955.0261327,2.038386217692225
956.7762999,-0.9961022088620024
958.5301437,0.3059147389799099
960.2876539,-0.9832630871108788
962.0488201,-2.0465408019560334
963.813632,-3.145091001415989
965.5820793,-1.6500203217407448
967.3541517,-3.931627784697047
969.1298386,2.105018682888055
970.9091298,1.7033514814049606
972.6920149,-2.722886210281976
974.4784835,-0.4818640940231268
976.2685251,-0.3512474515183997
978.0621293,-4.374340339645181
979.8592859,-0.1795326001418748
981.6599843,1.1326973448076738
983.4642142,-1.3699780389486216
985.2719651,1.4194941617328218
987.0832269,-2.0340671427426784
988.897989,0.5951808195257647
990.7162412,0.8251880571268331
992.5379731,0.5697323218961414
994.3631745,-0.1305353913543167
996.191835,-2.5234487474089846
998.0239445,-1.4046168974828863
999.8594926,-1.721517714247634
1001.698469,0.1940873766338494
1003.540864,-2.4828015120146354
1005.386668,-0.2560380296789093
1007.235869,-1.0135027700346122
1009.088458,-1.3882057339090028
1010.944426,-1.4595044843212577
1012.803762,2.695458672122457
1014.666456,-1.7623914860927488
1016.532498,3.563393467847685
1018.401878,0.1326549887647255
1020.274588,2.036567084308109
1022.150616,-4.73185969603898
1024.029953,-1.7019446622146523
1025.912591,-1.3569396311604591
1027.798518,-1.7565954216705633
1029.687726,-0.98573078831702
1031.580205,0.4841937252135517
1033.475945,0.8186167813122637
1035.3749380000002,2.5893260434548018
1037.277175,1.538102537464364
1039.182645,-2.0127188922791954
1041.09134,2.6250894347966467
1043.003251,0.2137404881779373
1044.918368,-0.0573575810121391
1046.836683,0.7728066703273068
1048.758188,3.079024708981095
1050.682872,1.7863592040068756
1052.610728,-0.9875552316154448
1054.541747,0.8450681541709223
1056.4759210000002,0.5606905164531844
1058.41324,2.214747155831732
1060.353697,-0.1533507103623259
1062.297282,-3.1936625878301363
1064.243989,-6.004355355014276
1066.193809,1.6975392031795646
1068.146734,-1.8391697537208151
1070.102755,-1.0996296138543131
