wave,flux
306.2504509,269.69752283451464
306.5604242,374.0547739946283
306.871524,488.9606531349031
307.18375710000004,620.7765605825554
307.4971302,759.9115535073943
307.8116501,922.9924450266452
308.1273236,978.3510429079378
308.4441577,1046.1496929673365
308.7621594,1111.994411552639
309.0813356,1183.0781833686551
309.4016935,1257.9427185421398
309.7232403,1333.478276280386
310.04598300000004,1413.6455811971518
310.369929,1498.165382911569
310.6950856,1584.225865806197
311.0214601,1672.0362865401737
311.34906010000003,1759.727763364765
311.6778931,1866.526664527768
312.0079665,1960.662203948744
312.33928810000003,2063.041214928057
312.6718655,2172.346082443677
313.00570639999995,2294.2626136173403
313.3408189,2411.8235712053697
313.6772106,2552.3198382465266
314.0148896,2694.8762566277883
314.3538639,2836.470719331368
314.6941415,3004.46448115622
315.0357308,3171.0570803974315
315.37863980000003,3337.3672132054053
315.7228769,3523.6045945462697
316.0684504,3703.1254859815217
316.4153688,3897.956139628475
316.76364069999994,4086.794401576836
317.1132746,4290.837864922557
317.4642791,4491.112809815679
317.8166631,4707.445845390321
318.1704352,4914.822699944536
318.5256045,5146.6540311890885
318.8821799,5382.678167798929
319.2401704,5616.969445961508
319.5995851,5874.16655041141
319.96043330000003,6129.986794408401
320.3227243,6401.567413090656
320.6864673,6662.472983848169
321.0516719,6949.866133517196
321.4183476,7226.119493669973
321.786504,7533.067124111099
322.1561508,7831.015760609117
322.5272977,8146.537285106382
322.8999548,8487.251969338686
323.2741319,8835.922741142913
323.649839,9207.946173508446
324.0270864,9596.930482342152
324.40588419999995,10018.568214572344
324.7862428,10480.506843885552
325.16817260000005,10991.431503428734
325.5516841,11593.496447017802
325.9367879,12293.998252544758
326.32349480000005,13101.8318193481
326.7118154,14091.37942149055
327.1017607,15250.990277766155
327.4933418,16605.67049013046
327.88656960000003,18188.489618499403
328.2814555,20004.31124110924
328.6780106,22054.700974426694
329.0762465,24267.489731285565
329.47617460000004,26711.13939261957
329.8778065,29280.74945983226
330.281154,31986.937881937472
330.6862289,34764.225513012534
331.0930432,37639.70741127904
331.5016088,40626.07292707882
331.911938,43793.0892093612
332.32404310000004,47200.431268436514
332.7379364,51045.2531057151
333.1536305,55370.04352868479
333.571138,60412.42352539963
333.9904716,66183.61482235794
334.4116443,72873.53771735399
334.834669,80416.50477529074
335.2595588,88769.57756657898
335.686327,97754.47322564508
336.114987,107111.93207318052
336.5455522,116549.20370029454
336.9780363,125660.0456883586
337.41245310000005,134035.61673190823
337.8488164,141410.05590080033
338.28714019999995,147427.41861565635
338.7274388,152046.34455684526
339.1697264,155189.6769275887
339.6140175,157075.24759954883
340.06032660000005,157905.21616717108
340.5086685,158117.8824661157
340.959058,158113.12712821804
341.4115102,158398.27329329788
341.8660403,159380.32322810357
342.32266339999995,161425.35422357265
342.7813952,164802.51780113284
343.24225110000003,169631.69974595172
343.70524710000007,175907.0219581028
344.17039889999995,183501.42119149357
344.6377228,192252.97225673829
345.1072349,201906.36459599168
345.5789517,212173.3622457205
346.0528897,222773.1439868993
346.5290657,233508.4240672497
347.0074967,244110.5094476857
347.48819960000003,254554.3844231128
347.9711917,264679.2317938977
348.45649060000005,274624.4268225877
348.9441137,284353.6841532875
349.434079,294087.6070436832
349.9264043,303941.12437316374
350.4211078,314066.0341401155
350.9182079,324663.0884026932
351.4177232,335723.8982603797
351.9196722,347412.9060767493
352.42407410000004,359647.30412373977
352.9309478,372135.9909289683
353.4403127,384670.4773764389
353.95218839999995,397036.6760859913
354.4665945,408919.1347839799
354.983551,419923.5351251958
355.503078,429818.21911441896
356.025196,438441.9224334071
356.5499253,445590.7972577071
357.077287,451346.382132131
357.6073018,455963.58794411214
358.1399912,459568.1761110855
358.6753765,462517.63307951327
359.2134795,465255.0660123971
359.754322,468082.7590854314
360.2979263,471460.6841045027
360.8443147,475719.28317218594
361.3935098,480751.96905820974
361.9455346,487041.2694671072
362.5004122,494432.34526819177
363.058166,502887.8662471611
363.61881960000005,512469.386344813
364.1823969,522877.4843415527
364.7489221,533838.9825770417
365.3184196,545280.8295911326
365.8909141,556731.3054377125
366.4664305,568260.2037871497
367.0449943,579419.9671810729
367.6266307,590161.128213046
368.2113658,599985.7985739864
368.7992255,609020.7155210723
369.3902363,616894.7671369421
369.9844249,623651.6392853719
370.5818182,629164.1332703971
371.1824436,633295.5625235584
371.7863286000001,636447.0274102523
372.3935012,638561.1641209057
373.0039896,639925.8831899357
373.6178223,640992.5163630993
374.2350283,642101.700665295
374.8556368,644108.612515894
375.4796772,647491.4158189376
376.1071796,652743.7884549921
376.7381741,660403.5267109338
377.3726913,670727.4851157343
378.0107622,684251.9139760948
378.652418,701218.0554787965
379.2976904,721409.2300771781
379.9466115,744368.3495236409
380.5992136,770112.1724644969
381.2555296,798352.003572223
381.9155926,828721.0949481155
382.5794362,861034.0431582654
383.2470943,895432.4477347413
383.9186014,931479.2530409122
384.5939922,969041.7002281548
385.2733019,1008256.727729986
385.9565661,1049002.6953298915
386.6438209,1091705.261484647
387.3351027,1136374.7507319972
388.0304484,1184383.8217122576
388.7298955,1235370.2508115878
389.4334817,1289626.9354058208
390.1412452,1350568.3490190017
390.853225,1418324.3846342657
391.56946,1492717.7718726548
392.2899901,1573099.559983291
393.0148555,1659309.369530755
393.7440968,1748038.6969356972
394.4777551,1839462.7381567096
395.2158722,1933113.101853389
395.9584903,2022361.37073566
396.7056521,2107340.2863902645
397.457401,2188128.5778930075
398.2137806,2266724.899013661
398.9748353,2343264.9065734567
399.7406101,2420859.968333709
400.5111505,2500875.694165113
401.2865024,2582908.19227268
402.0667126,2671469.45716555
402.8518283,2765311.585554336
403.6418973,2863657.3035862125
404.436968,2963527.398157811
405.2370896,3062541.029771245
406.0423117,3157727.0469459626
406.8526847,3245520.119677409
407.66825960000006,3323375.5450022044
408.4890879,3389679.2056583967
409.3152221,3442794.31493676
410.1467152,3482373.211276092
410.9836208,3510166.624499297
411.8259934,3527148.876318553
412.673888,3536312.476815701
413.5273605,3540250.443576464
414.38646760000006,3541382.9249012293
415.2512664,3542864.0468076062
416.1218152,3546598.9140358614
416.9981727,3553993.134073438
417.8803987,3566466.797481945
418.7685535,3585502.65095086
419.6626985,3611386.619469104
420.5628957,3645809.431267375
421.4692081,3691431.828093784
422.3816994,3750324.047923764
423.3004343,3825303.7490667
424.2254783,3920242.3657061406
425.1568978,4037038.6421384905
426.0947602,4178808.5002420144
427.0391337,4344207.286372598
427.9900874,4530156.933770797
428.9476917,4730584.870864561
429.9120175,4937110.807209667
430.8831369,5139819.262963873
431.8611232,5326667.27742061
432.8460504,5487460.898142588
433.8379937,5613614.181395004
434.8370293,5699121.402954478
435.8432345,5743667.344794755
436.8566878,5750199.624707585
437.8774686,5724375.116094811
438.9056575,5674866.561935877
439.9413364,5611658.571037032
440.9845882,5544363.375977243
442.035497,5482731.005435301
443.0941482,5433575.485408285
444.1606283,5401886.454413714
445.23502520000005,5392881.657408597
446.317428,5406599.895419426
447.407927,5441233.958697888
448.5066141,5493307.774275748
449.6135822,5559242.407719127
450.7289258,5635096.559195358
451.85274060000006,5714898.097586504
452.9851239,5793203.756320866
454.1261744,5862105.736109788
455.2759921,5919281.895665073
456.4346788,5964720.653039594
457.6023374,5998670.637678491
458.7790727,6021552.701518487
459.9649909,6035030.89338714
461.1601998,6040413.847305212
462.364809,6040872.357736861
463.5789295,6041413.639345827
464.8026741000001,6041591.723602562
466.0361575,6041704.044421092
467.2794956999999,6041521.813863033
468.5328070000001,6041573.363678252
469.7962111000001,6041101.091053291
471.0698299,6041214.580489744
472.3537868,6041395.524732117
473.6482074,6040735.439248859
474.9532192,6041384.109022382
476.2689517,6041302.71804277
477.5955362,6041305.254132769
478.93310639999993,6041231.102783117
480.2817979,6041228.650579021
481.6417484,6041342.058093141
483.01309800000007,6041272.8254933935
484.3959889,6041366.734934039
485.7905654,6041282.7719181925
487.1969743,6041237.981443907
488.6153648,6041651.206405797
490.0458884,6041076.580020557
491.488699,6041829.56406998
492.943953,6041115.463214449
494.4118094,6041667.929996192
495.8924299,6041651.012530828
497.3859785,6040951.432687039
498.8926222,6041494.018059324
500.4125306,6041617.177857935
501.9458762,6040876.411734105
503.4928341,6041373.880556045
505.0535827,6041706.383171158
506.628303,6041644.335522011
508.2171791999999,6041409.236895992
509.8203986,6041770.020884642
511.4381515,6041650.433866718
513.0706316000001,6041424.929368831
514.7180356,6041474.428221779
516.3805639,6041523.353625005
518.0584200000001,6041470.629625103
519.7518110000001,6041451.7398581365
521.4609475999999,6041180.611841481
523.186044,6041136.868937977
524.927318,6040994.075733817
526.6849915,6041302.024578378
528.45929,6040987.8265892975
530.2504428000001,6041581.837330474
532.0586836,6041133.358124138
533.8842498,6041638.798239662
535.7273833,6041712.919080329
537.5883299,6041187.055105321
539.46734,6041188.598755081
541.3646685,6041298.516747495
543.2805745000001,6041642.699116453
545.2153222000001,6041581.236223962
547.1691801,6041600.315777803
549.1424218999999,6041462.656882685
551.1353259,6041524.410779209
553.1481756000001,6041553.491883499
555.1812597,6041628.153016094
557.2348721,6041372.684935862
559.3093121,6041673.075348657
561.4048845,6041615.341822282
563.5218996,6041368.343376852
565.6606737000001,6041139.8546785
567.8215287,6041271.201657807
570.0047927,6041527.370623527
572.2107997,6041448.755352829
574.4398902,6040953.162650802
576.692411,6041380.845203994
578.9687155,6041290.497919869
581.2691637,6041390.613618412
583.5941226,6041196.170778427
585.943966,6041364.994218062
588.3190752,6041192.5762771815
590.7198384999999,6041014.847649593
593.1466518,6040885.92565173
595.5999188999999,6041397.480853135
598.0800512,6041735.498174393
600.5874682,6041630.620919988
603.1225977000001,6041394.133160174
605.6858758999999,6041297.661302604
608.2777476,6041105.11839865
610.8986664,6041489.438770289
613.549095,6041454.586962261
616.2295054,6041448.304528965
618.940379,6041536.441083651
621.6822068,6042915.617452385
624.4554901,6042205.689118155
627.2607402000001,6041198.949600143
630.0984786,6039186.031588874
632.9692378999999,6041499.604593335
635.8735614,6040430.544889793
638.8120038,6040806.608140493
641.7851312999999,6042048.579442273
644.7935217999999,6043518.768885624
647.8377654,6042148.354373929
650.9184646000001,6040505.709700167
654.0362346,6043507.437321561
657.1917038,6041839.811693853
660.3855139,6042353.842291586
663.6183202999999,6041101.416333307
666.8907926,6042183.939761809
670.2036149,6042841.681162505
671.949054,6041288.980459927
672.8766895,6041271.116313018
673.557486,6041291.622014789
673.8073092,6041228.570076198
674.7409267,6041021.87285016
675.6775557999999,6041509.762488304
676.6172101,6041406.773123708
677.5599033,6041372.668337625
678.5056492000001,6041317.116322317
679.4544612999999,6041289.512202607
680.4063535,6041134.786884902
681.3613392999999,6041533.216924714
682.3194324,6041266.774412323
683.2806465,6041136.6792547135
684.2449952000001,6041656.735559247
685.2124921,6041453.935218197
686.1831509,6041477.807051958
687.1569850999999,6041447.407197123
688.1340083,6040951.0301357685
689.1142341,6041551.977994118
690.097676,6041295.175980351
691.0843474999999,6041496.867909148
692.0742622,6041330.458684293
693.0674334,6041360.913656178
694.0638748,6041843.168072684
695.0635996,6041188.541090461
696.0666212,6041507.856637272
697.0729531000001,6041130.160638803
698.0826086,6041226.637563645
699.0956008999999,6041517.02129734
700.1119432999999,6041433.962947777
701.1316491,6041447.719601933
702.1547314,6041815.003225118
703.1812034,6040981.717873668
704.2110782000001,6040967.6351438975
705.2443688999999,6041738.733177078
706.2810885,6041548.596795866
707.3212499,6041271.804002987
708.3648661000001,6041728.899340636
709.41195,6041584.068917628
710.4625143999999,6041240.915375478
711.5165721,6041437.214353087
712.5741357,6041658.888258887
713.6352181,6041853.817453749
714.6998317000001,6041671.885354993
715.7679891,6041130.504671548
716.8397027999999,6041436.080231153
717.9149852,6041318.773342314
718.9938487000001,6041110.558645267
720.0763055,6041722.756696959
721.162368,6041509.564044408
722.2520481,6041873.071762422
723.3453581,6041526.665576748
724.4423098,6041324.880358534
725.5429153,6041484.095598589
726.6471863,6041026.719533288
727.7551346,6041408.608434394
728.866772,6041784.03417271
729.9821099,6041725.843732835
731.1011599,6041513.788835146
732.2239335,6041210.168393136
733.3504419,6041645.331585477
734.4806963999999,6040885.036336835
735.6147081,6041689.546074187
736.7524882,6041305.1218696935
737.8940474,6041200.265325408
739.0393967,6041800.426085106
740.1885467999999,6041282.587589228
741.3415084,6041523.938211418
742.498292,6041349.3987891525
743.658908,6041682.543470183
744.8233667999999,6041026.177558086
745.9916785,6041609.620689474
747.1638532000001,6041236.894622227
748.3399009,6041267.287163357
749.5198315,6040997.277771267
750.7036546,6041894.717999257
751.89138,6041019.960727064
753.0830171,6041294.731642417
754.2785752999999,6041196.609560045
755.4780638,6040896.320479778
756.6814917,6041697.931365322
757.8888678999999,6041314.892698192
759.1002014999999,6041291.76002809
760.3155009,6041289.917748722
761.5347749,6036780.657062923
762.7580318,6023964.05980649
763.98528,5997712.657800937
765.2165276000001,5955951.308974412
766.4517825,5895347.040713949
767.6910527000001,5813382.031961722
768.9343458999999,5705559.672415217
770.1816697,5569875.59638177
771.4330313999999,5410181.127787641
772.6884382999999,5231843.763107789
773.9478975,5039085.463048446
775.211416,4832980.524139859
776.4790005,4616379.994471286
777.7506578,4391418.445752092
779.0263942,4162201.13336868
780.3062162,3932472.826492075
781.5901297,3704004.682353642
782.8781409,3478031.841765556
784.1702554999999,3257889.636634962
785.4664793,3047456.7490209923
786.7668176,2849790.805837604
788.0712758,2667880.449633716
789.3798591,2503522.8423466543
790.6925722999999,2356380.8811159288
792.0094204,2226130.71682236
793.3304079,2110622.710441304
794.6555392000001,2007214.1856742024
795.9848187000001,1913150.76315576
797.3182504,1825846.586434492
798.6558382999999,1742977.564362195
799.9975861,1663641.2775876955
801.3434973,1585741.904297726
802.6935752999999,1510419.1496726065
804.0478232999999,1437564.072187647
805.4062443,1367628.7720231244
806.7688411,1301695.3845820487
808.1356164,1240120.060906805
809.5065726,1183657.899297768
810.881712,1132334.1536698125
812.2610367000001,1085876.9113334347
813.6445485,1043587.3167137622
815.0322493,1004697.6743276272
816.4241404,968409.006576656
817.8202233,933318.2401410504
819.2204991,899116.5702209264
820.6249687999999,864897.1098753907
822.0336331,830232.955694159
823.4464925999999,794968.3611602952
824.8635477000001,759564.773113662
826.2847987,724118.5188902372
827.7102456,689123.515936417
829.1398882,655092.694732433
830.5737261,622111.7128145909
832.0117589,590517.13129382
833.4539857000001,560695.1867076791
834.9004057999999,532372.5912337779
836.3510179,505560.8878744025
837.8058209,479851.1261874744
839.2648132999999,455164.5877465536
840.7279934000001,431060.8606945975
842.1953594,407389.4142823333
843.6669092,384107.6578465593
845.1426408,361062.00322486064
846.6225517000001,338163.1508206549
848.1066392999999,315524.3289994862
849.5949009999999,293031.8247583148
851.0873337999999,271018.12152723875
852.5839347000001,249467.1316309073
854.0847002999999,228473.33789758905
855.5896273,208273.924826504
857.0987119999999,188741.7572744613
858.6119507000001,170146.76381401625
860.1293393999999,152510.40892807208
861.650874,136164.089540954
863.1765502000001,120960.25721488072
864.7063635,107014.17990464352
866.2403094,94338.80468785512
867.778383,82941.22315808732
869.3205793999999,72875.05904464095
870.8668935000001,63972.42718596479
872.4173199999999,56125.52867552271
873.9718536,49276.025414478776
875.5304886,43293.759152407234
877.0932193,38158.80559640124
878.6600399,33686.803771548395
880.2309443,29739.35129457298
881.8059264000001,26120.05528725268
883.3849798,22804.046260033087
884.9680981,19749.757825731333
886.5552747000002,16862.142316048292
888.1465029,14146.787363960331
889.7417757000001,11569.155556185571
891.3410862,9090.57184702946
892.9444273,6825.763449366958
894.5517916000001,4938.185893382236
896.1631719000001,3421.853088742012
897.7785605,2209.524925941165
899.3979498,1303.306992236457
901.0213321,660.9184241964713
902.6486995,256.61736409407644
904.280044,73.1600683633893
905.9153575,34.8168960149347
907.5546319,13.697765457150387
909.1978586,4.806466342541204
910.8450295,-3.375389010866936
912.4961358,-1.945838213316483
914.1511691,2.143651113792037
915.8101205,-5.588724546315235
917.4729813,-0.0847166052511163
919.1397426,-3.16334733574574
920.8103953,0.4415389257802514
922.4849303,4.762325317972104
924.1633386,0.3367390488550703
925.8456109,-2.954393976771409
927.5317378,1.1213101835771502
929.22171,-1.1784167152442042
930.9155179,-0.1959820145603092
932.6131521,2.623685655736
934.3146028,3.508808964553748
936.0198606,-1.4092467872262948
937.7289155,3.357051064217856
939.4417579,-0.1433549982058296
941.1583779,3.4924909085186995
942.8787656,1.7552833197681612
944.6029109,1.0438529115219704
946.3308041,1.61116527028671
948.0624349,-1.6406580822307812
949.7977933,0.0303627546615611
951.5368692,1.0054468414848572
953.2796523,2.8825024563870287
955.0261327,2.038386217692225
956.7762999,-0.9961022088620024
958.5301437,0.3059147389799099
960.2876539,-0.9832630871108788
962.0488201,-2.0465408019560334
963.813632,-3.145091001415989
965.5820793,-1.6500203217407448
967.3541517,-3.931627784697047
969.1298386,2.105018682888055
970.9091298,1.7033514814049606
972.6920149,-2.722886210281976
974.4784835,-0.4818640940231268
976.2685251,-0.3512474515183997
978.0621293,-4.374340339645181
979.8592859,-0.1795326001418748
981.6599843,1.1326973448076738
983.4642142,-1.3699780389486216
985.2719651,1.4194941617328218
987.0832269,-2.0340671427426784
988.897989,0.5951808195257647
990.7162412,0.8251880571268331
992.5379731,0.5697323218961414
994.3631745,-0.1305353913543167
996.191835,-2.5234487474089846
998.0239445,-1.4046168974828863
999.8594926,-1.721517714247634
1001.698469,0.1940873766338494
1003.540864,-2.4828015120146354
1005.386668,-0.2560380296789093
1007.235869,-1.0135027700346122
1009.088458,-1.3882057339090028
1010.944426,-1.4595044843212577
1012.803762,2.695458672122457
1014.666456,-1.7623914860927488
1016.532498,3.563393467847685
1018.401878,0.1326549887647255
1020.274588,2.036567084308109
1022.150616,-4.73185969603898
1024.029953,-1.7019446622146523
1025.912591,-1.3569396311604591
1027.798518,-1.7565954216705633
1029.687726,-0.98573078831702
1031.580205,0.4841937252135517
1033.475945,0.8186167813122637
1035.3749380000002,2.5893260434548018
1037.277175,1.538102537464364
1039.182645,-2.0127188922791954
1041.09134,2.6250894347966467
1043.003251,0.2137404881779373
1044.918368,-0.0573575810121391
1046.836683,0.7728066703273068
1048.758188,3.079024708981095
1050.682872,1.7863592040068756
1052.610728,-0.9875552316154448
1054.541747,0.8450681541709223
1056.4759210000002,0.5606905164531844
1058.41324,2.214747155831732
1060.353697,-0.1533507103623259
1062.297282,-3.1936625878301363
1064.243989,-6.004355355014276
