wave,flux
306.2504509,93.46614058607013
306.5604242,142.32871837727242
306.871524,208.01748722718528
307.18375710000004,261.73818360810554
307.4971302,339.77865302597536
307.8116501,430.7368817584547
308.1273236,469.4248385654768
308.4441577,502.1715362362755
308.7621594,530.898165496411
309.0813356,566.8612648009257
309.4016935,598.8392426572158
309.7232403,637.4433077859808
310.04598300000004,682.6857647192929
310.369929,732.3008231738364
310.6950856,794.7674741685418
311.0214601,855.5146559470203
311.34906010000003,923.2558784176504
311.6778931,998.3157669001696
312.0079665,1075.3964968112575
312.33928810000003,1156.4743636857231
312.6718655,1238.334468015089
313.00570639999995,1316.9449623607354
313.3408189,1391.177023448861
313.6772106,1467.263882623231
314.0148896,1545.9960302811708
314.3538639,1626.2980454646192
314.6941415,1707.5897907421129
315.0357308,1791.7352040680937
315.37863980000003,1880.4148508302544
315.7228769,1975.4457515656932
316.0684504,2066.929857016876
316.4153688,2168.986391700071
316.76364069999994,2269.735547115012
317.1132746,2373.759276904884
317.4642791,2469.151379443499
317.8166631,2570.3647039238344
318.1704352,2668.891799200488
318.5256045,2767.4046321456813
318.8821799,2882.473185762964
319.2401704,2999.843633397147
319.5995851,3127.8140675540694
319.96043330000003,3262.0424841764147
320.3227243,3407.349805148932
320.6864673,3574.653264421824
321.0516719,3748.844294007988
321.4183476,3932.163614216247
321.786504,4129.563956208904
322.1561508,4324.994509355399
322.5272977,4514.568986207079
322.8999548,4714.163453728655
323.2741319,4912.20491575601
323.649839,5119.341954588042
324.0270864,5324.87410686076
324.40588419999995,5534.598274371399
324.7862428,5735.797242308555
325.16817260000005,5951.96312480006
325.5516841,6184.942166891377
325.9367879,6422.106712221249
326.32349480000005,6650.534482030531
326.7118154,6907.2527649179465
327.1017607,7168.657505682981
327.4933418,7460.001662369134
327.88656960000003,7757.66779231913
328.2814555,8093.086593218984
328.6780106,8458.222887943515
329.0762465,8871.962882955708
329.47617460000004,9346.435876239031
329.8778065,9886.07422479471
330.281154,10497.151730412968
330.6862289,11207.925570840283
331.0930432,12007.831269890272
331.5016088,12956.858752196613
331.911938,14028.255725485851
332.32404310000004,15246.161992762458
332.7379364,16607.822953556795
333.1536305,18106.541837098965
333.571138,19782.93359857843
333.9904716,21638.566935838666
334.4116443,23657.914459209176
334.834669,25843.789848029544
335.2595588,28248.73041915765
335.686327,30869.15821882065
336.114987,33754.49555891889
336.5455522,36965.828577549066
336.9780363,40523.879706428845
337.41245310000005,44547.84968459913
337.8488164,49034.642610587376
338.28714019999995,54097.93611168143
338.7274388,59746.5493894457
339.1697264,66027.82235078566
339.6140175,72901.23614125415
340.06032660000005,80366.87194261263
340.5086685,88257.7601779126
340.959058,96479.58774200593
341.4115102,104858.05378355738
341.8660403,113139.88056116331
342.32266339999995,121179.6510097064
342.7813952,128757.04440980524
343.24225110000003,135720.99483542898
343.70524710000007,142054.5644653904
344.17039889999995,147689.88728339758
344.6377228,152745.3789632526
345.1072349,157455.04407276883
345.5789517,162008.8410307296
346.0528897,166707.1514928425
346.5290657,171815.00126498615
347.0074967,177638.57634177138
347.48819960000003,184347.5656899931
347.9711917,191960.463735974
348.45649060000005,200466.1870320136
348.9441137,209692.1922613765
349.434079,219312.23003543584
349.9264043,229042.88544607148
350.4211078,238539.1713941917
350.9182079,247414.4046327299
351.4177232,255395.42244768536
351.9196722,262309.2264621908
352.42407410000004,268140.79301186546
352.9309478,272851.8531497948
353.4403127,276585.48238467594
353.95218839999995,279564.05374641874
354.4665945,281911.57106932625
354.983551,283923.4021163024
355.503078,285687.7357565529
356.025196,287221.0767353036
356.5499253,288643.8838902448
357.077287,289950.4595939326
357.6073018,291107.0974581304
358.1399912,292159.00008348643
358.6753765,293177.5170554243
359.2134795,294254.96203600214
359.754322,295658.6968825343
360.2979263,297628.26050662826
360.8443147,300499.66574372584
361.3935098,304325.046562732
361.9455346,309415.28209081467
362.5004122,315722.598358443
363.058166,323230.5119500646
363.61881960000005,331669.7846497181
364.1823969,340704.9928641602
364.7489221,349915.9991901497
365.3184196,358853.2497622457
365.8909141,367103.58996335225
366.4664305,374281.8032090255
367.0449943,380265.8132941529
367.6266307,384950.0534661281
368.2113658,388495.4801272305
368.7992255,391071.2642521107
369.3902363,392996.5618283416
369.9844249,394816.6334124394
370.5818182,397024.8989611412
371.1824436,400057.6344885376
371.7863286000001,404555.1685501213
372.3935012,410895.75118857017
373.0039896,419449.88897949056
373.6178223,430584.5559327706
374.2350283,444454.9260266639
374.8556368,461083.6815723832
375.4796772,480412.7760889053
376.1071796,502160.4200394742
376.7381741,525856.1492915959
377.3726913,550943.1396190821
378.0107622,576910.6037156946
378.652418,602978.418327348
379.2976904,628462.2628206111
379.9466115,652575.7339332522
380.5992136,675057.5066980906
381.2555296,695511.25945708
381.9155926,713854.3019847444
382.5794362,730306.4673388725
383.2470943,745489.5903671095
383.9186014,759899.5525990317
384.5939922,774514.126988706
385.2733019,790061.8201267702
385.9565661,807687.7203589242
386.6438209,827922.1506606763
387.3351027,851589.9375022781
388.0304484,878806.5414776322
388.7298955,910050.300139552
389.4334817,945680.0257884108
390.1412452,985737.8674232428
390.853225,1030291.4926111286
391.56946,1079362.5606633895
392.2899901,1133677.622486396
393.0148555,1193299.4523604626
393.7440968,1258899.9708533294
394.4777551,1330586.5417999977
395.2158722,1408776.545591937
395.9584903,1493143.4315238397
396.7056521,1583586.3757950512
397.457401,1678693.1116206932
398.2137806,1777564.2940726862
398.9748353,1878605.89588026
399.7406101,1980142.1893715784
400.5111505,2080121.3737962765
401.2865024,2176785.444737915
402.0667126,2268437.7119149505
402.8518283,2354062.183627508
403.6418973,2432695.126437424
404.436968,2504159.2054018863
405.2370896,2568120.798053368
406.0423117,2624565.6989655388
406.8526847,2674684.5454812823
407.66825960000006,2718704.185270562
408.4890879,2757937.4363489905
409.3152221,2793506.5146212764
410.1467152,2826867.988485064
410.9836208,2860284.056911892
411.8259934,2895708.4796940675
412.673888,2936088.183839646
413.5273605,2984491.238030557
414.38646760000006,3043059.6280860538
415.2512664,3114024.6907436643
416.1218152,3199552.423058314
416.9981727,3300295.546283711
417.8803987,3416630.332895123
418.7685535,3547029.5255726217
419.6626985,3688469.698460336
420.5628957,3838841.420612228
421.4692081,3993015.807466599
422.3816994,4146952.363548879
423.3004343,4295118.229077809
424.2254783,4434475.00549776
425.1568978,4560602.495039096
426.0947602,4671037.675513914
427.0391337,4764477.738145387
427.9900874,4840313.335107693
428.9476917,4900380.284745808
429.9120175,4946501.188549828
430.8831369,4981726.604371907
431.8611232,5010224.354788393
432.8460504,5036749.256828857
433.8379937,5064556.92706635
434.8370293,5096771.716344179
435.8432345,5135574.865588655
436.8566878,5183337.623198457
437.8774686,5241294.442969729
438.9056575,5309188.770735404
439.9413364,5385745.833378579
440.9845882,5468276.426611842
442.035497,5553280.413863012
443.0941482,5638307.658920422
444.1606283,5719828.047082055
445.23502520000005,5795285.997988792
446.317428,5862451.466070439
447.407927,5917166.493570765
448.5066141,5959811.281359379
449.6135822,5991911.806921448
450.7289258,6014225.974650345
451.85274060000006,6029122.617719109
452.9851239,6037262.004178365
454.1261744,6040437.350335249
455.2759921,6041319.703369888
456.4346788,6041407.780440785
457.6023374,6041230.4352395525
458.7790727,6041779.663245913
459.9649909,6041582.449433106
461.1601998,6041011.434832172
462.364809,6041643.545553133
463.5789295,6041216.963423965
464.8026741000001,6041670.596951492
466.0361575,6041153.520592124
467.2794956999999,6041524.191837241
468.5328070000001,6041291.696232599
469.7962111000001,6041198.54134077
471.0698299,6041011.792096407
472.3537868,6041870.09315501
473.6482074,6041379.46537779
474.9532192,6041644.092131496
476.2689517,6041273.331329348
477.5955362,6041913.434242888
478.93310639999993,6041272.658611568
480.2817979,6041147.686648362
481.6417484,6041046.658832788
483.01309800000007,6041154.555473307
484.3959889,6041222.365638976
485.7905654,6041520.931284286
487.1969743,6041376.719984768
488.6153648,6041856.435862284
490.0458884,6040771.681890038
491.488699,6040929.018355533
492.943953,6041427.202464816
494.4118094,6042051.0313211065
495.8924299,6041285.607133753
497.3859785,6041905.498529827
498.8926222,6041380.599535889
500.4125306,6041601.75730312
501.9458762,6041520.830641761
503.4928341,6041248.965182503
505.0535827,6041615.223370938
506.628303,6041708.096604793
508.2171791999999,6041280.073334719
509.8203986,6041269.681665855
511.4381515,6041396.126916343
513.0706316000001,6041632.607492062
514.7180356,6041459.192664824
516.3805639,6041398.805701407
518.0584200000001,6040691.98318211
519.7518110000001,6041053.904655244
521.4609475999999,6041930.236313849
523.186044,6041727.71380453
524.927318,6041517.964501478
526.6849915,6041445.596470051
528.45929,6041544.205098445
530.2504428000001,6041361.420474822
532.0586836,6041491.462449274
533.8842498,6041235.785037507
535.7273833,6041378.66331221
537.5883299,6041160.510498881
539.46734,6041327.388220497
541.3646685,6041551.735511067
543.2805745000001,6041556.13685556
545.2153222000001,6041783.4918203065
547.1691801,6041458.535947148
549.1424218999999,6041288.92923506
551.1353259,6041675.817531449
553.1481756000001,6041819.238926007
555.1812597,6041712.642092942
557.2348721,6041418.776732383
559.3093121,6041575.4554282185
561.4048845,6041484.101683177
563.5218996,6041381.178355193
565.6606737000001,6041481.440735439
567.8215287,6041372.259851179
570.0047927,6041241.36769298
572.2107997,6041297.104189358
574.4398902,6040901.907346552
576.692411,6041674.516929213
578.9687155,6041271.952885874
581.2691637,6041468.892703236
583.5941226,6041190.821026688
585.943966,6041365.527854688
588.3190752,6041482.754803799
590.7198384999999,6041571.592144772
593.1466518,6041392.139536306
595.5999188999999,6041381.315245798
598.0800512,6041202.047829254
600.5874682,6041121.883073143
603.1225977000001,6041371.360654871
605.6858758999999,6041694.483413707
608.2777476,6041510.116576804
610.8986664,6041411.846666709
613.549095,6041557.865512754
616.2295054,6040962.592140487
618.940379,6041122.276793373
621.6822068,6040609.62184893
624.4554901,6041197.6773137525
627.2607402000001,6042964.360435175
630.0984786,6043553.724711651
632.9692378999999,6042038.248838156
635.8735614,6040897.284988415
638.8120038,6042213.9459087085
641.7851312999999,6040388.775974204
644.7935217999999,6041444.229675057
647.8377654,6041179.080081041
650.9184646000001,6044421.795400425
654.0362346,6042676.770917798
657.1917038,6041335.055548388
657.501561,6041213.102491157
658.3833105,6041675.173506688
659.2678255,6041354.862794315
660.1551197000001,6041644.441429223
660.3855139,6041211.099698498
661.0452068,6041939.220913758
661.9381002,6041391.46357243
662.8338137000001,6041566.783747729
663.7323607999999,6041506.331844827
664.6337553,6041395.154352518
665.5380107000001,6041174.928814688
666.4451407,6041789.567108886
667.355159,6041768.990847449
668.2680793,6041025.600701578
669.1839152000001,6041878.621230503
670.1026805,6041536.203329182
671.0243889,6041817.049782247
671.949054,6041288.980459927
672.8766895,6041271.116313018
673.8073092,6041228.570076198
674.7409267,6041021.87285016
675.6775557999999,6041509.762488304
676.6172101,6041406.773123708
677.5599033,6041372.668337625
678.5056492000001,6041317.116322317
679.4544612999999,6041289.512202607
680.4063535,6041134.786884902
681.3613392999999,6041533.216924714
682.3194324,6041266.774412323
683.2806465,6041136.6792547135
684.2449952000001,6041656.735559247
685.2124921,6041453.935218197
686.1831509,6041477.807051958
687.1569850999999,6041447.407197123
688.1340083,6040951.0301357685
689.1142341,6041551.977994118
690.097676,6041295.175980351
691.0843474999999,6041496.867909148
692.0742622,6041330.458684293
693.0674334,6041360.913656178
694.0638748,6041843.168072684
695.0635996,6041188.541090461
696.0666212,6041507.856637272
697.0729531000001,6041130.160638803
698.0826086,6041226.637563645
699.0956008999999,6041517.02129734
700.1119432999999,6041433.962947777
701.1316491,6041447.719601933
702.1547314,6041815.003225118
703.1812034,6040981.717873668
704.2110782000001,6040967.6351438975
705.2443688999999,6041738.733177078
706.2810885,6041548.596795866
707.3212499,6041271.804002987
708.3648661000001,6041728.899340636
709.41195,6041584.068917628
710.4625143999999,6041240.915375478
711.5165721,6041437.214353087
712.5741357,6041658.888258887
713.6352181,6041853.817453749
714.6998317000001,6041671.885354993
715.7679891,6041130.504671548
716.8397027999999,6041436.080231153
717.9149852,6041318.773342314
718.9938487000001,6041110.558645267
720.0763055,6041722.756696959
721.162368,6041509.564044408
722.2520481,6041873.071762422
723.3453581,6041526.665576748
724.4423098,6041324.880358534
725.5429153,6041484.095598589
726.6471863,6041026.719533288
727.7551346,6041408.608434394
728.866772,6041784.03417271
729.9821099,6041725.843732835
731.1011599,6041513.788835146
732.2239335,6041210.168393136
733.3504419,6041645.331585477
734.4806963999999,6040885.036336835
735.6147081,6041689.546074187
736.7524882,6041305.1218696935
737.8940474,6041200.265325408
739.0393967,6041800.426085106
740.1885467999999,6041282.587589228
741.3415084,6041523.938211418
742.498292,6041349.3987891525
743.658908,6041682.543470183
744.8233667999999,6041026.177558086
745.9916785,6041609.620689474
747.1638532000001,6041236.894622227
748.3399009,6041267.287163357
749.5198315,6040997.277771267
750.7036546,6041894.717999257
751.89138,6041019.960727064
753.0830171,6041294.731642417
754.2785752999999,6041196.609560045
755.4780638,6040896.320479778
756.6814917,6041697.931365322
757.8888678999999,6041314.892698192
759.1002014999999,6041291.76002809
760.3155009,6041289.917748722
761.5347749,6036780.657062923
762.7580318,6023964.05980649
763.98528,5997712.657800937
765.2165276000001,5955951.308974412
766.4517825,5895347.040713949
767.6910527000001,5813382.031961722
768.9343458999999,5705559.672415217
770.1816697,5569875.59638177
771.4330313999999,5410181.127787641
772.6884382999999,5231843.763107789
773.9478975,5039085.463048446
775.211416,4832980.524139859
776.4790005,4616379.994471286
777.7506578,4391418.445752092
779.0263942,4162201.13336868
780.3062162,3932472.826492075
781.5901297,3704004.682353642
782.8781409,3478031.841765556
784.1702554999999,3257889.636634962
785.4664793,3047456.7490209923
786.7668176,2849790.805837604
788.0712758,2667880.449633716
789.3798591,2503522.8423466543
790.6925722999999,2356380.8811159288
792.0094204,2226130.71682236
793.3304079,2110622.710441304
794.6555392000001,2007214.1856742024
795.9848187000001,1913150.76315576
797.3182504,1825846.586434492
798.6558382999999,1742977.564362195
799.9975861,1663641.2775876955
801.3434973,1585741.904297726
802.6935752999999,1510419.1496726065
804.0478232999999,1437564.072187647
805.4062443,1367628.7720231244
806.7688411,1301695.3845820487
808.1356164,1240120.060906805
809.5065726,1183657.899297768
810.881712,1132334.1536698125
812.2610367000001,1085876.9113334347
813.6445485,1043587.3167137622
815.0322493,1004697.6743276272
816.4241404,968409.006576656
817.8202233,933318.2401410504
819.2204991,899116.5702209264
820.6249687999999,864897.1098753907
822.0336331,830232.955694159
823.4464925999999,794968.3611602952
824.8635477000001,759564.773113662
826.2847987,724118.5188902372
827.7102456,689123.515936417
829.1398882,655092.694732433
830.5737261,622111.7128145909
832.0117589,590517.13129382
833.4539857000001,560695.1867076791
834.9004057999999,532372.5912337779
836.3510179,505560.8878744025
837.8058209,479851.1261874744
839.2648132999999,455164.5877465536
840.7279934000001,431060.8606945975
842.1953594,407389.4142823333
843.6669092,384107.6578465593
845.1426408,361062.00322486064
846.6225517000001,338163.1508206549
848.1066392999999,315524.3289994862
849.5949009999999,293031.8247583148
851.0873337999999,271018.12152723875
852.5839347000001,249467.1316309073
854.0847002999999,228473.33789758905
855.5896273,208273.924826504
857.0987119999999,188741.7572744613
858.6119507000001,170146.76381401625
860.1293393999999,152510.40892807208
861.650874,136164.089540954
863.1765502000001,120960.25721488072
864.7063635,107014.17990464352
866.2403094,94338.80468785512
867.778383,82941.22315808732
869.3205793999999,72875.05904464095
870.8668935000001,63972.42718596479
872.4173199999999,56125.52867552271
873.9718536,49276.025414478776
875.5304886,43293.759152407234
877.0932193,38158.80559640124
878.6600399,33686.803771548395
880.2309443,29739.35129457298
881.8059264000001,26120.05528725268
883.3849798,22804.046260033087
884.9680981,19749.757825731333
886.5552747000002,16862.142316048292
888.1465029,14146.787363960331
889.7417757000001,11569.155556185571
891.3410862,9090.57184702946
892.9444273,6825.763449366958
894.5517916000001,4938.185893382236
896.1631719000001,3421.853088742012
897.7785605,2209.524925941165
899.3979498,1303.306992236457
901.0213321,660.9184241964713
902.6486995,256.61736409407644
904.280044,73.1600683633893
905.9153575,34.8168960149347
907.5546319,13.697765457150387
909.1978586,4.806466342541204
910.8450295,-3.375389010866936
912.4961358,-1.945838213316483
914.1511691,2.143651113792037
915.8101205,-5.588724546315235
917.4729813,-0.0847166052511163
919.1397426,-3.16334733574574
920.8103953,0.4415389257802514
922.4849303,4.762325317972104
924.1633386,0.3367390488550703
925.8456109,-2.954393976771409
927.5317378,1.1213101835771502
929.22171,-1.1784167152442042
930.9155179,-0.1959820145603092
932.6131521,2.623685655736
934.3146028,3.508808964553748
936.0198606,-1.4092467872262948
937.7289155,3.357051064217856
939.4417579,-0.1433549982058296
941.1583779,3.4924909085186995
942.8787656,1.7552833197681612
944.6029109,1.0438529115219704
946.3308041,1.61116527028671
948.0624349,-1.6406580822307812
949.7977933,0.0303627546615611
951.5368692,1.0054468414848572
953.2796523,2.8825024563870287
955.0261327,2.038386217692225
956.7762999,-0.9961022088620024
958.5301437,0.3059147389799099
960.2876539,-0.9832630871108788
962.0488201,-2.0465408019560334
963.813632,-3.145091001415989
965.5820793,-1.6500203217407448
967.3541517,-3.931627784697047
969.1298386,2.105018682888055
970.9091298,1.7033514814049606
972.6920149,-2.722886210281976
974.4784835,-0.4818640940231268
976.2685251,-0.3512474515183997
978.0621293,-4.374340339645181
979.8592859,-0.1795326001418748
981.6599843,1.1326973448076738
983.4642142,-1.3699780389486216
985.2719651,1.4194941617328218
987.0832269,-2.0340671427426784
988.897989,0.5951808195257647
990.7162412,0.8251880571268331
992.5379731,0.5697323218961414
994.3631745,-0.1305353913543167
996.191835,-2.5234487474089846
998.0239445,-1.4046168974828863
999.8594926,-1.721517714247634
1001.698469,0.1940873766338494
1003.540864,-2.4828015120146354
1005.386668,-0.2560380296789093
1007.235869,-1.0135027700346122
1009.088458,-1.3882057339090028
1010.944426,-1.4595044843212577
1012.803762,2.695458672122457
1014.666456,-1.7623914860927488
1016.532498,3.563393467847685
1018.401878,0.1326549887647255
1020.274588,2.036567084308109
1022.150616,-4.73185969603898
1024.029953,-1.7019446622146523
1025.912591,-1.3569396311604591
1027.798518,-1.7565954216705633
1029.687726,-0.98573078831702
1031.580205,0.4841937252135517
1033.475945,0.8186167813122637
1035.3749380000002,2.5893260434548018
1037.277175,1.538102537464364
1039.182645,-2.0127188922791954
1041.09134,2.6250894347966467
