wave,flux
1817.164934,-30.473532957428702
1790.1022050000001,-24.48256209978061
1763.812741,-18.69896635530633
1738.2646949999998,16.821335365686082
1713.427949,86.9914617581985
1689.273995,2580.99590444088
1665.7758310000002,8410.262894622094
1642.907862,17739.927704644717
1620.64581,30396.317305911187
1598.9666300000001,46278.931260877216
1577.8484310000001,65753.66599076209
1557.270407,88395.96578705088
1537.212767,114388.35881881438
1517.65668,139450.28390971074
1498.5842089999999,161770.98279028852
1479.978265,181277.7674564089
1461.822555,198395.24723569548
1444.101535,212748.5745485829
1426.800368,224382.9302564517
1409.904887,233615.7863714872
1393.401553,239942.67766339282
1377.2774220000001,245588.77047163434
1361.520115,251092.0217628178
1346.117782,256496.43886492608
1331.059081,261961.18487328547
1316.3331449999998,267351.06488351856
1301.92956,272646.6140865781
1287.838342,277733.4874010586
1274.049912,283242.95283326245
1260.5550779999999,288640.7758502364
1247.345017,293901.637416554
1234.4112519999999,299775.0539884868
1221.74564,305616.51079446677
1209.340352,311722.3616420937
1197.187859,317398.9004395979
1185.28092,323800.49488698755
1173.612564,329781.58849585697
1162.1760800000002,335932.6924851364
1150.9650060000001,341777.56898675143
1139.973115,348427.9305960471
1129.194406,354384.4146855898
1118.623093,360513.60745535017
1108.253594,366499.3527946932
1098.0805269999998,372733.8219552135
1088.098695,379249.7008025904
1078.303081,385841.997060696
1068.688841,393634.6988745288
1059.251295,402748.00278771337
1049.9859199999999,414219.2099489193
1040.8883449999998,428653.2587031926
1031.9543429999999,446729.60528611415
1023.1798259999999,468461.9704370076
1014.5608390000001,494404.53384660993
1006.0935529999999,523665.0254149769
997.774265,555687.6036086476
989.5993858999999,589884.7011987132
981.5654412999999,624887.9885735876
973.6690651,659482.5578772086
965.9069952,692861.8374304568
958.2760697000001,722488.3341954526
950.7732231000001,749091.1553205504
943.3954827,771066.6810720614
936.1399648,788378.485646759
929.0038716,801856.9899461471
921.9844879000001,811360.533669265
915.0791782,818300.255840393
908.2853836000002,823486.8463377778
901.6006193,829151.3131543769
895.0224714,836163.500869046
888.548595,849016.058208821
882.1767113,866204.735043657
875.9046055,893224.2357347799
869.7301242999998,930090.64376792
863.6511742999999,976513.5365077524
857.6657193,1039462.3914538338
851.7717787,1121050.469470026
845.9674256000001,1217988.1866150298
840.2507849,1338825.2450263049
834.6200316000001,1482150.311810465
829.0733892000001,1652351.846957016
823.6091279,1845317.4867673772
818.2255633999999,2062162.1563602528
812.9210552000001,2292749.8397123283
807.694005,2527201.9469995257
802.5428559,2768025.3628248507
797.4660904,3006433.642370027
792.4622299,3248290.5492228274
787.5298327,3496767.6194036673
782.6674933999999,3750909.3412094433
777.8738417999999,4010820.346641756
773.1475413,4273687.56652605
768.4872882999999,4541628.0752399005
763.8918112000001,4810324.257251351
759.3598692,5082000.142924222
754.8902515999999,5328135.887176471
750.4817767999999,5536353.144806856
746.1332914,5703835.519344435
741.8436694000001,5830031.5727594085
737.6118116,5929177.560715578
733.4366444,5994459.368686877
729.3171195,6027858.276483576
725.2522127999999,6042568.080500508
721.2409241,6039468.37367113
717.282276,6042762.511520014
713.3753136,6039684.93585459
709.5191037000001,6041931.515094801
705.7127343,6039452.888910221
701.9553139,6041087.436316961
698.2459709,6041846.7065582415
694.5838534,6043206.664407337
690.9681281000001,6041739.505536688
687.3979803,6042507.96780718
683.8726131,6042152.151213167
680.3912472999999,6044641.653994031
676.9531202000001,6041174.313029951
673.557486,6041373.058186004
670.2036149,6044040.943118302
666.8907926,6040228.980696574
663.6183202999999,6037797.343766838
660.3855139,6041794.8209897
657.1917038,6039938.5484502325
654.0362346,6040482.862182288
650.9184646000001,6042726.913470113
647.8377654,6038280.857218274
644.7935217999999,6042202.500414442
641.7851312999999,6040922.056793323
638.8120038,6041911.570904087
635.8735614,6039820.071454558
632.9692378999999,6040565.13788846
630.0984786,6041927.888174398
627.2607402000001,6041849.680675461
624.4554901,6041045.713977026
621.6822068,6041016.462407979
618.940379,6041214.9558564285
616.2295054,6041578.543155169
613.549095,6041430.0915549835
610.8986664,6041162.666654603
608.2777476,6041357.270818127
605.6858758999999,6041407.273541138
603.1225977000001,6040936.026342041
600.5874682,6041400.967417291
598.0800512,6041348.529885925
595.5999188999999,6040864.4342676485
593.1466518,6041375.553773043
590.7198384999999,6041436.193237293
588.3190752,6041624.9844666915
585.943966,6041156.213574933
583.5941226,6041459.313473563
581.2691637,6041098.456886065
578.9687155,6041078.209434153
576.692411,6041452.507658154
574.4398902,6041549.061945011
572.2107997,6041334.152320956
570.0047927,6041392.553263831
567.8215287,6041323.873794796
565.6606737000001,6041096.414936967
563.5218996,6041467.977580592
561.4048845,6041589.1326221
559.3093121,6041776.213984418
557.2348721,6041415.410206965
555.1812597,6041319.961275852
553.1481756000001,6041274.556760632
551.1353259,6041773.629551297
549.1424218999999,6041334.959133863
547.1691801,6040931.297169497
545.2153222000001,6041455.50337194
543.2805745000001,6041416.252468935
541.3646685,6041432.399898767
539.46734,6041512.442179892
537.5883299,6041402.627469888
535.7273833,6041338.544940728
533.8842498,6042197.111669358
532.0586836,6041546.1430884525
530.2504428000001,6041348.065194378
528.45929,6041057.1168104
526.6849915,6041293.738118302
524.927318,6041222.208203266
523.186044,6041571.1302538365
521.4609475999999,6041475.412479943
519.7518110000001,6041052.404921877
518.0584200000001,6041609.174043031
516.3805639,6041569.999620461
514.7180356,6041512.935427938
513.0706316000001,6041140.144298565
511.43815149999995,6041437.433924703
509.82039860000003,6041275.72536
508.2171791999999,6041399.991742962
506.628303,6041517.04302195
505.05358269999994,6041436.105901245
503.4928341,6041056.240411789
501.9458762,6041451.8368091425
500.41253059999997,6041195.899063451
498.8926222,6041324.7455189
497.3859785,6041465.724061743
495.89242989999997,6041375.041805174
494.4118094,6041290.212427364
492.943953,6041694.650396671
491.488699,6041400.048400082
490.04588839999997,6041308.6637512185
488.6153648,6041286.209305578
487.19697429999997,6041566.92342355
485.7905654,6041423.373590202
484.39598889999996,6041407.2800088525
483.01309800000007,6041233.638307625
481.64174840000004,6041506.6837624
480.28179789999996,6041650.455006792
478.93310639999993,6040988.762385396
477.59553619999997,6041318.0999354385
476.2689517,6041258.005668826
474.9532192,6041507.968093921
473.6482074,6041461.807420224
472.35378679999997,6041220.499840102
471.06982989999995,6040949.4346169885
469.79621110000005,6041458.658143156
468.53280700000005,6041369.495971424
467.2794956999999,6042058.1768685
466.0361575,6041526.167049859
464.80267410000005,6041428.07837913
463.5789295,6041383.667158557
462.364809,6041422.3382679215
461.1601998,6041260.488214565
459.9649909,6041461.8039120585
458.7790727,6040958.650232407
457.6023374,6041360.741894818
456.4346788,6041435.353636245
455.2759921,6041635.021418192
454.12617439999997,6041296.401725668
452.9851239,6041271.355437298
451.85274060000006,6041423.467882127
450.7289258,6041897.295180017
449.6135822,6041451.420336111
448.5066141,6041508.8149776375
447.407927,6041201.168048902
446.317428,6041725.6963189365
445.23502520000005,6041335.628527427
444.1606283,6041336.586727284
443.0941482,6041702.441625242
442.03549699999996,6041595.065543165
440.9845882,6041372.069395316
439.9413364,6041494.816553079
438.9056575,6041411.448090681
437.87746860000004,6041479.1997236665
436.85668780000003,6041446.6649759775
435.8432345,6041366.301736847
434.83702930000004,6041464.399285841
433.83799369999997,6041070.695159502
432.84605039999997,6041338.313731076
431.8611232,6041121.189022741
430.8831369,6040400.918931349
429.9120175,6034464.520706592
428.94769169999995,6022946.56098929
427.9900874,6003738.89024842
427.03913370000004,5977899.741121748
426.0947602,5945646.718158681
425.1568978,5908177.70127088
424.22547829999996,5868320.399406274
423.3004343,5830487.005209746
422.3816994,5800149.588773352
421.4692081,5783363.068945583
420.56289569999996,5780037.735843695
419.66269850000003,5791695.687239068
418.7685535,5815515.844074734
417.8803987,5848606.127431517
416.9981727,5887241.219749596
416.12181519999996,5925139.540989714
415.25126639999996,5956665.580150631
414.38646760000006,5977362.430823096
413.5273605,5986754.129455472
412.673888,5983328.387416365
411.8259934,5965973.157979485
410.9836208,5936240.831251512
410.14671519999996,5893273.061106304
409.3152221,5840802.401214098
408.48908789999996,5780678.894625555
407.66825960000006,5713189.3003901625
406.8526847,5638036.368871878
406.0423117,5556894.774752705
405.2370896,5469338.818398055
404.43696800000004,5376428.876656566
403.64189730000004,5280980.764384594
402.8518283,5181880.209962823
402.0667126,5080120.403123774
401.28650239999996,4975638.029979324
400.5111505,4867645.544823196
399.7406101,4755585.182230037
398.9748353,4639080.438440458
398.2137806,4517479.327456805
397.457401,4389657.309474422
396.7056521,4255848.838614891
395.9584903,4116118.001677592
395.2158722,3970468.800079174
394.4777551,3822250.905405166
393.7440968,3673030.0731509095
393.0148555,3524548.549911688
392.2899901,3377965.118403052
391.56946,3234558.251543914
390.853225,3094818.173001765
390.1412452,2957381.9559722138
389.43348169999996,2821670.6853514155
388.7298955,2686468.4164031674
388.03044839999995,2549791.2061974504
387.3351027,2410547.505682954
386.6438209,2268969.5679700407
385.95656610000003,2124463.607446028
385.2733019,1978068.0232233468
384.5939922,1830779.7863968909
383.9186014,1684326.9605135443
383.2470943,1540396.5170144963
382.5794362,1400364.5006452005
381.9155926,1266107.2502197018
381.2555296,1139071.1369732094
380.59921360000004,1020124.9476441416
379.9466115,910379.3133070087
379.29769039999996,809996.8918124458
378.652418,719324.836342439
378.0107622,638215.5629441597
377.37269130000004,566830.4668876897
376.73817410000004,504037.95951882884
376.1071796,450017.39417766576
375.47967719999997,403670.17366688506
374.8556368,364120.60356593947
374.2350283,330673.851830858
373.6178223,302494.50060649967
373.0039896,278790.82089667564
372.3935012,258734.9673505293
371.78632860000005,241783.3968063746
371.1824436,227092.4062665959
370.5818182,214572.49824060212
369.98442489999996,203357.38026456567
369.39023629999997,193497.78944871933
368.7992255,184512.20437692085
368.2113658,176386.41063249
367.6266307,168942.86225411962
367.0449943,162100.64868168163
366.4664305,155825.44204641858
365.89091410000003,150012.0125602645
365.3184196,144646.9185528211
364.7489221,139653.61927601474
364.18239689999996,134920.1286697908
363.61881960000005,130490.02721561625
363.058166,126198.10481243314
362.50041219999997,121965.40257028055
361.94553460000003,117742.61509331307
361.3935098,113517.11323943155
360.8443147,109353.87482854804
360.29792630000003,105241.27977606053
359.754322,101125.30513004916
359.2134795,97024.60417943851
358.6753765,93024.24086269016
358.1399912,89164.24938143832
357.6073018,85444.05616463546
357.077287,81868.47327435121
356.5499253,78411.86978511521
356.025196,75099.77393825821
355.50307799999996,71928.5172997087
354.983551,68898.74800270026
354.4665945,65986.72114938968
353.95218839999995,63202.14842875513
353.4403127,60489.34030011369
352.9309478,57856.124704321075
352.42407410000004,55307.739550133934
351.9196722,52820.68417781682
351.4177232,50402.35445275076
350.91820789999997,48062.01421690213
350.4211078,45778.44996268467
349.9264043,43567.34856245523
349.434079,41432.40445733225
348.9441137,39462.35393293038
348.45649060000005,37567.68511817714
347.97119169999996,35731.47811947688
347.48819960000003,33968.227628536726
347.0074967,32250.639979346943
346.5290657,30609.351772505062
346.0528897,29005.643640860693
345.5789517,27420.37992166663
345.1072349,25864.20274664699
344.6377228,24326.675923860028
344.17039889999995,22895.99115135768
343.70524710000007,21553.685438454424
343.24225110000003,20298.79823524468
342.7813952,19078.03633105638
342.32266339999995,17903.530393142042
341.8660403,16752.55029425527
341.4115102,15662.5405259048
340.959058,14604.575951277346
340.5086685,13571.725892614691
340.06032660000005,12544.87207385187
339.6140175,11553.593581720628
339.1697264,10599.267342519855
338.7274388,9735.727946959565
338.28714019999995,8954.779875151988
337.8488164,8211.073799671403
337.41245310000005,7524.697262707168
336.9780363,6861.861252081559
336.5455522,6253.1754963003405
336.114987,5666.018315440329
335.686327,5089.347426405117
335.2595588,4532.471702500112
334.834669,3980.0266981292493
334.4116443,3456.3961525813525
333.9904716,2959.5769551048065
333.57113799999996,2501.1439188587105
333.1536305,2086.3941834478783
332.73793639999997,1721.8919210676272
332.32404310000004,1400.291285564429
331.91193799999996,1123.249359520545
331.5016088,901.819513212246
331.0930432,694.362181368519
330.6862289,532.6348918884264
330.281154,401.2370504163421
329.8778065,287.9618418033765
329.47617460000004,196.7063607717185
329.07624649999997,127.13684451928208
328.6780106,81.39623545923713
328.2814555,44.062363603229144
327.88656960000003,21.70920265548743
327.4933418,9.234554920199137
327.1017607,2.350730470191982
326.7118154,1.1065609547819797
326.32349480000005,-1.1008160162636988
325.93678789999996,0.2715671583621363
325.5516841,-3.8240481646324582
325.16817260000005,1.9829443024288949
324.7862428,6.452734125865218
324.40588419999995,1.9420849735965748
324.0270864,-3.811834061268512
323.649839,1.0655824454644955
323.2741319,2.1394898968545557
322.8999548,1.7779676784780276
322.5272977,-1.5051832955734887
322.1561508,0.9131555626069972
321.786504,0.7703888331273209
321.4183476,5.261042299687628
321.0516719,0.7153990891878291
320.6864673,2.0083957975915547
320.3227243,0.0075743474121971206
319.96043330000003,0.22487005023336207
319.5995851,-2.126594634776977
319.2401704,-1.2293256386085878
318.8821799,-2.8568502516300454
318.5256045,3.907905490455508
318.1704352,-4.008215426837275
317.8166631,-2.444883668141914
317.4642791,1.3104549088151216
317.1132746,-2.275348409444021
316.76364069999994,0.1624416590246233
316.4153688,2.1104787217933856
316.06845039999996,-0.2279646255599113
315.72287689999996,2.00351833128505
315.37863980000003,-1.644141134061144
315.0357308,-0.9526379837612556
314.6941415,-2.7294104771391234
314.3538639,-1.7538743329267112
314.0148896,0.5194853637334929
313.6772106,-0.5066375727249229
313.3408189,-0.6978602216826592
313.00570639999995,4.021426387596783
312.67186549999997,1.2192511586503552
312.33928810000003,2.3565727127658787
312.0079665,1.5283839010746274
311.6778931,-3.2325910070090687
311.34906010000003,2.3642605961141494
311.0214601,-2.3479173699262024
310.6950856,-1.7775143727669525
310.369929,1.190348504799149
310.04598300000004,0.22798399292554275
309.7232403,4.21422801250797
309.4016935,1.1709053246885162
309.0813356,0.2739034318982342
308.7621594,2.093315358012914
308.4441577,-1.8069369933998172
308.1273236,-0.7452680562840136
307.8116501,-2.9738880592867054
307.49713019999996,0.3465085542093546
307.18375710000004,-3.4993273103319624
306.871524,3.301882473247172
306.5604242,-1.6802146810641545
306.2504509,2.893887272948177
