wave,flux
1817.164934,25.610509249846796
1790.1022050000001,5.0913005206344994
1763.812741,9.451809441487717
1738.2646949999998,57.41140145456057
1713.427949,128.1582179130989
1689.273995,573.0876804979862
1665.7758310000002,1673.4989358495193
1642.907862,3488.8091313440104
1620.64581,6021.099727577842
1598.9666300000001,9341.637216996949
1577.8484310000001,13509.037134097169
1557.270407,18510.305169581738
1537.212767,24427.010753256334
1517.65668,30591.17142068569
1498.5842089999999,36734.44814273058
1479.978265,42774.71619923689
1461.822555,48629.6770996174
1444.101535,54307.40335728332
1426.800368,59824.93661551111
1409.904887,65048.5882763866
1393.401553,69934.60930080737
1377.2774220000001,74876.82633084303
1361.520115,79861.32889399528
1346.117782,84855.98036859385
1331.059081,89947.73135631111
1316.3331449999998,94933.34959442141
1301.92956,100109.45499213133
1287.838342,105157.42901749091
1274.049912,110050.95510022863
1260.5550779999999,115054.67749076527
1247.345017,119829.70431969846
1234.4112519999999,124745.21489208633
1221.74564,129503.57997689144
1209.340352,134275.5148145681
1197.187859,138981.8407020503
1185.28092,143668.9837860547
1173.612564,148244.52941342304
1162.1760800000002,152867.16645341265
1150.9650060000001,157501.5854221056
1139.973115,162078.98366913508
1129.194406,166490.07716135253
1118.623093,170981.43953743463
1108.253594,175396.92738118971
1098.0805269999998,179682.17817650753
1088.098695,184043.2363171926
1078.303081,188697.02822982392
1068.688841,193233.929557303
1059.251295,198218.1291027917
1049.9859199999999,203651.5551423361
1040.8883449999998,209747.61276714495
1031.9543429999999,216446.07111963962
1023.1798259999999,224009.10240382105
1014.5608390000001,232641.13024767034
1006.0935529999999,242358.6145668277
997.774265,252670.97991749874
989.5993858999999,263744.5457382321
981.5654412999999,275381.877664846
973.6690651,286996.89512206416
965.9069952,299221.4253440543
958.2760697000001,311383.83238888875
950.7732231000001,323046.87288588914
943.3954827,334415.82222051837
936.1399648,345346.8306121363
929.0038716,355991.73872308474
921.9844879000001,366476.20611970755
915.0791782,376115.3529420903
908.2853836000002,385671.9433206208
901.6006193,395337.1358587268
895.0224714,405282.3128695453
888.548595,416525.2117454108
882.1767113,428643.7794850479
875.9046055,441884.59467840346
869.7301242999998,457836.0795282397
863.6511742999999,475203.48796243273
857.6657193,495842.8065627606
851.7717787,520619.00354023284
845.9674256000001,548555.7620751014
840.2507849,582586.6344865467
834.6200316000001,619745.9811873572
829.0733892000001,665361.3874398039
823.6091279,715797.046376982
818.2255633999999,771865.4463138597
812.9210552000001,834407.8983130372
807.694005,901148.1171671855
802.5428559,970839.0902781752
797.4660904,1047698.1460212842
792.4622299,1124972.09793254
787.5298327,1209186.9650591726
782.6674933999999,1303323.503761793
777.8738417999999,1413915.710282349
773.1475413,1546427.848148154
768.4872882999999,1709281.606202426
763.8918112000001,1916276.0769098897
759.3598692,2165120.3357834825
754.8902515999999,2469990.5706357392
750.4817767999999,2819811.890898212
746.1332914,3207733.05325139
741.8436694000001,3618049.2636029487
737.6118116,4038739.383616696
733.4366444,4444995.245798478
729.3171195,4825921.198412342
725.2522127999999,5160510.606885359
721.2409241,5434973.444758479
717.282276,5649796.259903338
713.3753136,5807223.98952028
709.5191037000001,5914478.276672022
705.7127343,5985155.201067593
701.9553139,6020965.700644048
698.2459709,6038843.561249113
694.5838534,6043439.76746631
690.9681281000001,6041140.84759819
687.3979803,6041930.772340013
683.8726131,6040106.946526597
680.3912472999999,6041368.672835566
676.9531202000001,6039931.1793166185
673.557486,6042175.305347031
670.2036149,6041659.8423533775
666.8907926,6042224.063646714
663.6183202999999,6039109.879415742
660.3855139,6041671.4989007935
657.1917038,6042031.890189397
654.0362346,6039898.197726102
650.9184646000001,6042678.618786686
647.8377654,6037017.694277203
644.7935217999999,6041964.937339601
641.7851312999999,6041350.081463659
638.8120038,6041320.245692561
635.8735614,6041091.230265797
632.9692378999999,6042834.884191711
630.0984786,6042506.6485698875
627.2607402000001,6040930.899251139
624.4554901,6041990.427507781
621.6822068,6040927.725344703
618.940379,6041551.785288948
616.2295054,6041289.36679299
613.549095,6041263.6805703575
610.8986664,6041260.25290832
608.2777476,6041449.870544152
605.6858758999999,6041601.798316953
603.1225977000001,6041196.65716653
600.5874682,6041592.861647593
598.0800512,6041550.683388651
595.5999188999999,6040996.350307797
593.1466518,6041009.007548807
590.7198384999999,6041614.698639695
588.3190752,6041314.863972479
585.943966,6041203.477766093
583.5941226,6041367.146313656
581.2691637,6041343.046252162
578.9687155,6041340.194537508
576.692411,6041655.287697366
574.4398902,6041527.042577231
572.2107997,6040975.707831237
570.0047927,6041232.659022857
567.8215287,6041856.815480158
565.6606737000001,6041529.720852165
563.5218996,6041625.538917637
561.4048845,6041267.8296435075
559.3093121,6041423.648180583
557.2348721,6041445.093848341
555.1812597,6041312.01293465
553.1481756000001,6041504.1015166715
551.1353259,6041577.355527762
549.1424218999999,6041197.494806785
547.1691801,6041250.649322344
545.2153222000001,6041693.6658514235
543.2805745000001,6041496.123548362
541.3646685,6041378.220144782
539.46734,6041063.868364712
537.5883299,6041194.638465627
535.7273833,6041482.510439172
533.8842498,6041240.084116594
532.0586836,6041271.775165862
530.2504428000001,6041543.492334904
528.45929,6041245.923002839
526.6849915,6041953.52837918
524.927318,6041296.853610308
523.186044,6041218.003607645
521.4609475999999,6041513.425840871
519.7518110000001,6041424.241695552
518.0584200000001,6041219.337694122
516.3805639,6041239.58935046
514.7180356,6041040.602843707
513.0706316000001,6041454.915303557
511.43815149999995,6041419.611464447
509.82039860000003,6041680.241128169
508.2171791999999,6041407.468797447
506.628303,6041853.295382655
505.05358269999994,6041338.314943883
503.4928341,6041469.600597449
501.9458762,6042008.256919635
500.41253059999997,6040859.019682167
498.8926222,6041263.169491832
497.3859785,6041183.155878468
495.89242989999997,6041596.848885018
494.4118094,6040981.424777992
492.943953,6041349.380820725
491.488699,6041225.089942402
490.04588839999997,6041504.274342429
488.6153648,6041552.083286699
487.19697429999997,6041930.521247412
485.7905654,6042036.116793319
484.39598889999996,6041578.3770802375
483.01309800000007,6041123.737314362
481.64174840000004,6041560.200120065
480.28179789999996,6041568.887008803
478.93310639999993,6041780.445445096
477.59553619999997,6041688.845806054
476.2689517,6041301.932568752
474.9532192,6041053.856008634
473.6482074,6041053.273928526
472.35378679999997,6041824.314958213
471.06982989999995,6041216.318750722
469.79621110000005,6041355.509476012
468.53280700000005,6041529.103120673
467.2794956999999,6041615.499341154
466.0361575,6041449.050524472
464.80267410000005,6041285.447040821
463.5789295,6041267.903956795
462.364809,6041483.415245706
461.1601998,6041661.149940647
459.9649909,6041096.273085468
458.7790727,6041105.801237379
457.6023374,6041400.856418288
456.4346788,6041060.193256772
455.2759921,6041257.169693277
454.12617439999997,6041479.472598192
452.9851239,6041534.84541017
451.85274060000006,6040675.970448483
450.7289258,6041604.129132942
449.6135822,6041700.818332268
448.5066141,6041392.078957235
447.407927,6041364.680029787
446.317428,6041217.696784101
445.23502520000005,6041704.750923156
444.1606283,6041195.036567588
443.0941482,6041426.661118996
442.03549699999996,6041360.427122127
440.9845882,6040664.720631934
439.9413364,6041605.16029469
438.9056575,6040896.083917061
437.87746860000004,6041717.780073263
436.85668780000003,6041851.591169489
435.8432345,6041271.281196907
434.83702930000004,6038314.001601301
433.83799369999997,6030314.8712817915
432.84605039999997,6015092.97297166
431.8611232,5989489.843059275
430.8831369,5953336.8537607975
429.9120175,5903826.757791758
428.94769169999995,5840103.128929802
427.9900874,5761273.676524067
427.03913370000004,5670416.824173269
426.0947602,5572610.678100133
425.1568978,5470532.650997651
424.22547829999996,5368575.039258733
423.3004343,5269945.367310111
422.3816994,5177117.107152493
421.4692081,5092476.270466692
420.56289569999996,5018688.268823707
419.66269850000003,4954988.204350486
418.7685535,4899837.380214302
417.8803987,4851691.794937547
416.9981727,4809427.88955144
416.12181519999996,4771648.726966944
415.25126639999996,4736690.333094706
414.38646760000006,4702750.209219026
413.5273605,4668501.261975753
412.673888,4634201.309857495
411.8259934,4598023.784371419
410.9836208,4558923.893223418
410.14671519999996,4516363.648137345
409.3152221,4470111.4328227285
408.48908789999996,4419189.934679588
407.66825960000006,4363651.022184024
406.8526847,4303230.021297393
406.0423117,4239373.374464073
405.2370896,4172017.7148909913
404.43696800000004,4103425.9020810993
403.64189730000004,4035300.889307397
402.8518283,3970019.054349786
402.0667126,3907263.088435697
401.28650239999996,3849939.553104505
400.5111505,3797655.766923797
399.7406101,3749376.999295543
398.9748353,3704112.17101818
398.2137806,3659334.273577311
397.457401,3613079.474035161
396.7056521,3562062.302082647
395.9584903,3505228.8296468523
395.2158722,3439652.733097298
394.4777551,3365185.215091316
393.7440968,3281953.712029745
393.0148555,3191245.79103998
392.2899901,3094392.9010840943
391.56946,2993345.934397498
390.853225,2890142.865341531
390.1412452,2786194.2907711267
389.43348169999996,2683684.593131523
388.7298955,2583149.846510041
388.03044839999995,2486208.049871585
387.3351027,2392969.643841438
386.6438209,2303443.9657539628
385.95656610000003,2218338.118082464
385.2733019,2138205.9903915203
384.5939922,2062422.3439082082
383.9186014,1992946.033948731
383.2470943,1929149.5720387863
382.5794362,1872096.92824716
381.9155926,1821932.6741478024
381.2555296,1778850.1887384432
380.59921360000004,1742375.545892944
379.9466115,1712077.87153086
379.29769039999996,1687104.0730175888
378.652418,1666481.185522974
378.0107622,1648359.8902855031
377.37269130000004,1631421.1661671812
376.73817410000004,1614383.8885677352
376.1071796,1595632.4253437268
375.47967719999997,1574577.1885683446
374.8556368,1549855.7078784131
374.2350283,1521460.5575960756
373.6178223,1488680.5984189322
373.0039896,1452115.738240002
372.3935012,1411525.6346711887
371.78632860000005,1367644.8012439313
371.1824436,1320922.1934721996
370.5818182,1271588.678332467
369.98442489999996,1220831.1062014827
369.39023629999997,1168186.8206590195
368.7992255,1114838.8896445094
368.2113658,1060792.8971315557
367.6266307,1006590.2012625248
367.0449943,952200.7711800613
366.4664305,898218.2000267239
365.89091410000003,844383.8821096173
365.3184196,791110.9740018673
364.7489221,738560.5481433928
364.18239689999996,687009.8821604742
363.61881960000005,636258.5735007846
363.058166,586683.9822521785
362.50041219999997,538750.2848931799
361.94553460000003,492264.55585404177
361.3935098,447859.5053294352
360.8443147,405645.44334660773
360.29792630000003,365794.5614000196
359.754322,328698.8995426841
359.2134795,294629.30567619397
358.6753765,263467.47280528554
358.1399912,235418.8694255709
357.6073018,210445.78201200048
357.077287,188438.44900025288
356.5499253,169312.80849918214
356.025196,152890.00523766718
355.50307799999996,138832.97599575054
354.983551,126856.34907253082
354.4665945,116796.29711464507
353.95218839999995,108265.26039787408
353.4403127,101065.09372875158
352.9309478,95004.49716689276
352.42407410000004,89757.11111360717
351.9196722,85188.26182379396
351.4177232,81187.26698092683
350.91820789999997,77595.533835286
350.4211078,74326.94575514551
349.9264043,71327.82839076937
349.434079,68528.21725282184
348.9441137,65862.50693305014
348.45649060000005,63349.254065100715
347.97119169999996,60884.160596660506
347.48819960000003,58519.198226800705
347.0074967,56230.70432713311
346.5290657,54001.65065367914
346.0528897,51811.067950651464
345.5789517,49681.4218827238
345.1072349,47621.20875675507
344.6377228,45646.93043862617
344.17039889999995,43720.29833708025
343.70524710000007,41884.352370458364
343.24225110000003,40106.107907620426
342.7813952,38404.89388743954
342.32266339999995,36742.398820744966
341.8660403,35136.21161029115
341.4115102,33552.708589281916
340.959058,32001.572824896724
340.5086685,30457.481186902343
340.06032660000005,28961.015898437257
339.6140175,27488.60938775221
339.1697264,26044.44726227646
338.7274388,24661.313975790963
338.28714019999995,23330.792850892765
337.8488164,22071.93156854581
337.41245310000005,20900.73372193396
336.9780363,19788.27189342987
336.5455522,18753.288794501244
336.114987,17778.76818337633
335.686327,16883.702327086325
335.2595588,16039.247215271454
334.834669,15240.207170448984
334.4116443,14477.443346407605
333.9904716,13741.252034266823
333.57113799999996,13053.637416886268
333.1536305,12397.781937249312
332.73793639999997,11782.195880038791
332.32404310000004,11198.516964925184
331.91193799999996,10660.83599626876
331.5016088,10147.307209803355
331.0930432,9678.93719124896
330.6862289,9230.454179061891
330.281154,8816.631721768841
329.8778065,8397.748053182551
329.47617460000004,7981.748711467016
329.07624649999997,7576.331700781312
328.6780106,7174.718877054628
328.2814555,6759.1513436819205
327.88656960000003,6355.659564152672
327.4933418,5942.267880202782
327.1017607,5543.1023008759175
326.7118154,5159.104635045645
326.32349480000005,4781.731040884121
325.93678789999996,4419.506040226718
325.5516841,4073.938118832301
325.16817260000005,3739.292897159457
324.7862428,3430.1798304778695
324.40588419999995,3128.080715077493
324.0270864,2846.595729398262
323.649839,2583.2152039349426
323.2741319,2328.321191590677
322.8999548,2093.853623668016
322.5272977,1870.5105626048141
322.1561508,1654.7218839658447
321.786504,1473.1207503831024
321.4183476,1287.6081756073906
321.0516719,1122.1831164293842
320.6864673,966.7199581181267
320.3227243,828.4901786781587
319.96043330000003,703.2878177304361
319.5995851,587.1498219244447
319.2401704,483.00617396328005
318.8821799,388.823957612205
318.5256045,308.7185270902126
318.1704352,242.7670900074621
317.8166631,184.83906234732825
317.4642791,137.95188294156122
317.1132746,100.68616987867769
316.76364069999994,70.05082438620445
316.4153688,46.66598126024121
316.06845039999996,31.73237061938128
315.72287689999996,14.770309724386301
315.37863980000003,7.073072740736895
315.0357308,3.7394163599533385
314.6941415,-1.7427561384206849
314.3538639,0.3938588739903032
314.0148896,-1.1305425300685534
313.6772106,-1.6956041985742574
313.3408189,-2.043096156651528
313.00570639999995,-0.5744676321447271
312.67186549999997,1.7833491819764962
312.33928810000003,-2.9291589160760783
312.0079665,-0.28198162913165004
311.6778931,-0.8289936317518796
311.34906010000003,7.2452537243659325
311.0214601,-3.40308345800004
310.6950856,0.23291704288864298
310.369929,-5.0313595477945015
310.04598300000004,-1.4712005487990891
309.7232403,1.0854254945749269
309.4016935,-5.449836995942596
309.0813356,0.04074705636137047
308.7621594,-2.3366476472839963
308.4441577,-4.02499680380616
308.1273236,-1.5721738413909965
307.8116501,0.22771059833972304
307.49713019999996,-1.3948885415888934
307.18375710000004,-0.3160902245763497
306.871524,3.4893545340299044
306.5604242,-3.1122362867485247
306.2504509,-2.1305013989594217
