wave,flux
1817.164934,-6.26718129750497
1790.1022050000001,-21.582600297115565
1763.812741,8.530078233693159
1738.2646949999998,16.818969520449844
1713.427949,88.1571939033897
1689.273995,682.8780382561907
1665.7758310000002,1982.758979731416
1642.907862,4081.0444107867547
1620.64581,7056.983070789004
1598.9666300000001,10981.7568599114
1577.8484310000001,15818.231744287204
1557.270407,21519.027609466648
1537.212767,28208.456614592007
1517.65668,35061.20101324949
1498.5842089999999,41734.07570716206
1479.978265,48179.42615211639
1461.822555,54338.879102761064
1444.101535,60104.32077867379
1426.800368,65558.867377342
1409.904887,70598.74593440923
1393.401553,75260.5726644153
1377.2774220000001,79740.12612054264
1361.520115,84110.61675409316
1346.117782,88474.24513878039
1331.059081,92636.80477245967
1316.3331449999998,96912.00566577527
1301.92956,100995.65074475289
1287.838342,104973.90953151662
1274.049912,108917.87964568887
1260.5550779999999,112655.75424314768
1247.345017,116641.47637954682
1234.4112519999999,120594.05083243948
1221.74564,124659.7054653166
1209.340352,128698.94070224793
1197.187859,132785.95817862105
1185.28092,136912.795610934
1173.612564,141068.52668167546
1162.1760800000002,145366.09346223235
1150.9650060000001,149433.6638911949
1139.973115,153594.708349362
1129.194406,157559.66523942188
1118.623093,161487.04742531932
1108.253594,165334.1139947026
1098.0805269999998,169179.6602612882
1088.098695,173001.30288834608
1078.303081,176778.2760002069
1068.688841,181132.5887649284
1059.251295,185764.2685131679
1049.9859199999999,190758.2923921088
1040.8883449999998,196600.89107750813
1031.9543429999999,203571.6847804076
1023.1798259999999,211316.99970899435
1014.5608390000001,220007.54641372815
1006.0935529999999,230024.84208223442
997.774265,240735.2174581175
989.5993858999999,252163.29429662155
981.5654412999999,264054.8368341239
973.6690651,276200.89333274506
965.9069952,288326.6093414846
958.2760697000001,300270.2370524605
950.7732231000001,311672.97600557096
943.3954827,322733.69732073904
936.1399648,332801.1492267864
929.0038716,342520.7216964537
921.9844879000001,351287.08807526674
915.0791782,359822.7359468853
908.2853836000002,367565.14597262134
901.6006193,375852.1322236864
895.0224714,384197.8759018735
888.548595,393225.7838987889
882.1767113,403724.7625936021
875.9046055,415915.6009176755
869.7301242999998,429969.21866335627
863.6511742999999,446425.36501127994
857.6657193,466398.48555929755
851.7717787,490364.8781967098
845.9674256000001,519933.17050207115
840.2507849,555026.3151121918
834.6200316000001,595872.7597542714
829.0733892000001,644696.087217045
823.6091279,700958.9105749045
818.2255633999999,765177.7558872445
812.9210552000001,834733.3733505
807.694005,910791.9587522248
802.5428559,989359.2851640356
797.4660904,1071232.536599453
792.4622299,1154673.025386204
787.5298327,1245105.0211071356
782.6674933999999,1340637.3154711064
777.8738417999999,1457244.6045561098
773.1475413,1594051.7829970748
768.4872882999999,1769592.6850840575
763.8918112000001,1984141.232421841
759.3598692,2257417.7365460717
754.8902515999999,2576777.806180144
750.4817767999999,2949734.4337321674
746.1332914,3351257.6398309367
741.8436694000001,3776750.468328247
737.6118116,4204265.8470328115
733.4366444,4612765.885761738
729.3171195,4987403.090765001
725.2522127999999,5302437.717169514
721.2409241,5550457.927626395
717.282276,5740597.182568074
713.3753136,5871459.41231525
709.5191037000001,5959186.712118595
705.7127343,6011255.693672542
701.9553139,6037568.358248598
698.2459709,6040729.705703688
694.5838534,6039485.295958307
690.9681281000001,6040379.539130118
687.3979803,6041101.441840927
683.8726131,6042525.646751666
680.3912472999999,6042716.507584599
676.9531202000001,6043034.442669646
673.557486,6042591.871118733
670.2036149,6044731.31114772
666.8907926,6040085.823116568
663.6183202999999,6042980.517569417
660.3855139,6042657.633611932
657.1917038,6040895.25218446
654.0362346,6040913.26972822
650.9184646000001,6041736.950491723
647.8377654,6042472.326268815
644.7935217999999,6041159.432169001
641.7851312999999,6040558.343212299
638.8120038,6042577.315870943
635.8735614,6040742.996091243
632.9692378999999,6040772.896718157
630.0984786,6041577.965558145
627.2607402000001,6042982.590970526
624.4554901,6041096.799424516
621.6822068,6040561.337604155
618.940379,6041426.513088567
616.2295054,6042385.971229045
613.549095,6040930.513749547
610.8986664,6041333.819256255
608.2777476,6041713.6788041815
605.6858758999999,6040961.767462183
603.1225977000001,6041673.825863249
600.5874682,6041663.56357751
598.0800512,6041505.20828664
595.5999188999999,6041257.475389778
593.1466518,6041600.255558877
590.7198384999999,6041435.2872915035
588.3190752,6040858.541676546
585.943966,6041602.473394901
583.5941226,6041044.1691875225
581.2691637,6041417.21604064
578.9687155,6041310.406598605
576.692411,6041252.072953078
574.4398902,6041368.47176768
572.2107997,6041052.593304216
570.0047927,6041563.799706252
567.8215287,6041764.169462487
565.6606737000001,6041261.587057595
563.5218996,6041292.049221923
561.4048845,6041528.583336812
559.3093121,6041302.306260421
557.2348721,6041252.285927118
555.1812597,6041151.705660954
553.1481756000001,6041584.186264331
551.1353259,6041656.891974707
549.1424218999999,6041243.451842164
547.1691801,6041497.7577893725
545.2153222000001,6041525.216253249
543.2805745000001,6041009.451319331
541.3646685,6041751.444076583
539.46734,6041815.086446092
537.5883299,6041538.842074118
535.7273833,6041696.56736963
533.8842498,6041383.902322486
532.0586836,6041285.538607406
530.2504428000001,6041274.138466357
528.45929,6041156.633319492
526.6849915,6040771.217492544
524.927318,6041684.031232579
523.186044,6041162.585196173
521.4609475999999,6041299.6908097835
519.7518110000001,6040849.493399442
518.0584200000001,6041010.9433727525
516.3805639,6041281.066366308
514.7180356,6041513.819846573
513.0706316000001,6040931.97468823
511.43815149999995,6041090.100185335
509.82039860000003,6041581.83787465
508.2171791999999,6041315.703087946
506.628303,6041616.188216245
505.05358269999994,6041482.688552075
503.4928341,6041057.014840158
501.9458762,6041596.4829128515
500.41253059999997,6041408.324197588
498.8926222,6041944.879809944
497.3859785,6041543.313054292
495.89242989999997,6041405.344043758
494.4118094,6041689.943753312
492.943953,6041449.106185198
491.488699,6040982.672981711
490.04588839999997,6041412.718500848
488.6153648,6041424.651488657
487.19697429999997,6041320.550581678
485.7905654,6041510.1037693685
484.39598889999996,6040967.035303692
483.01309800000007,6041439.304863099
481.64174840000004,6041126.099292795
480.28179789999996,6041279.2290073475
478.93310639999993,6041609.362912721
477.59553619999997,6041718.191391851
476.2689517,6041787.597456338
474.9532192,6041412.7035560375
473.6482074,6041084.009857657
472.35378679999997,6041436.0717774825
471.06982989999995,6041557.184796391
469.79621110000005,6041362.777860837
468.53280700000005,6041827.954554964
467.2794956999999,6041632.557748454
466.0361575,6041597.087373887
464.80267410000005,6041156.130078993
463.5789295,6041560.394353456
462.364809,6041099.425202592
461.1601998,6041788.47494552
459.9649909,6041319.835328273
458.7790727,6041558.242837222
457.6023374,6041331.045908063
456.4346788,6041573.088542674
455.2759921,6041330.357955425
454.12617439999997,6041079.359360509
452.9851239,6041182.918395177
451.85274060000006,6042027.544835279
450.7289258,6040930.544394268
449.6135822,6041263.208837687
448.5066141,6041141.228694869
447.407927,6041302.849589463
446.317428,6041482.964647777
445.23502520000005,6041462.856887695
444.1606283,6041712.612511382
443.0941482,6041349.934159201
442.03549699999996,6041508.245387559
440.9845882,6041423.331935335
439.9413364,6041279.42611187
438.9056575,6039010.440911834
437.87746860000004,6028439.892965699
436.85668780000003,6006408.872481126
435.8432345,5968502.2684449935
434.83702930000004,5910166.913038885
433.83799369999997,5828009.954383123
432.84605039999997,5718680.883181194
431.8611232,5580686.564632223
430.8831369,5417294.6095529515
429.9120175,5237285.357471852
428.94769169999995,5046595.907539164
427.9900874,4855837.217204663
427.03913370000004,4673083.502683584
426.0947602,4504641.563222681
425.1568978,4358016.559987157
424.22547829999996,4236102.16241683
423.3004343,4140820.2209038604
422.3816994,4070527.0171288135
421.4692081,4020980.628766439
420.56289569999996,3990769.4487560326
419.66269850000003,3975297.514517765
418.7685535,3972247.717562695
417.8803987,3980047.7439796254
416.9981727,3996954.278009448
416.12181519999996,4021716.8366469694
415.25126639999996,4053601.0702857883
414.38646760000006,4090780.517923723
413.5273605,4130766.4498991435
412.673888,4171453.070192276
411.8259934,4208354.347432042
410.9836208,4237583.016896327
410.14671519999996,4253351.8643239485
409.3152221,4252594.9489077
408.48908789999996,4231324.977883036
407.66825960000006,4186667.609173149
406.8526847,4117602.253422802
406.0423117,4025354.8840904827
405.2370896,3910429.405250153
404.43696800000004,3776817.9185093683
403.64189730000004,3627863.0158517333
402.8518283,3468110.2472473155
402.0667126,3301812.9448346505
401.28650239999996,3134579.2372011
400.5111505,2969415.8822459187
399.7406101,2809088.66749926
398.9748353,2656053.7380698984
398.2137806,2512527.012219904
397.457401,2379471.6877700533
396.7056521,2257401.984961902
395.9584903,2145659.0223036758
395.2158722,2044541.175099753
394.4777551,1953138.72540084
393.7440968,1871700.0927956
393.0148555,1799984.561180895
392.2899901,1736936.3956762124
391.56946,1681928.8772567275
390.853225,1634605.5630538631
390.1412452,1593901.8043936098
389.43348169999996,1559015.1375999071
388.7298955,1528677.8159113922
388.03044839999995,1501298.3530819847
387.3351027,1475071.2461639682
386.6438209,1448295.1979056194
385.95656610000003,1419169.2818150308
385.2733019,1385601.8591634356
384.5939922,1346195.3561066864
383.9186014,1299579.2580282502
383.2470943,1245261.9091350837
382.5794362,1183056.035646797
381.9155926,1113122.226444452
381.2555296,1037050.8960132459
380.59921360000004,956135.4485594896
379.9466115,872215.8426646638
379.29769039999996,787515.5431780526
378.652418,704253.5708832204
378.0107622,624246.5606854623
377.37269130000004,549332.3042253536
376.73817410000004,480710.4543320071
376.1071796,419437.27429910906
375.47967719999997,365606.9841431444
374.8556368,319434.883872164
374.2350283,280576.85713540716
373.6178223,248289.1185614375
373.0039896,221735.8653632156
372.3935012,200128.95174832208
371.78632860000005,182528.72017210227
371.1824436,168205.63910942545
370.5818182,156270.26956912846
369.98442489999996,146192.24958863738
369.39023629999997,137592.9850795352
368.7992255,130035.08747060545
368.2113658,123283.29768322744
367.6266307,117220.64220641936
367.0449943,111759.59335537042
366.4664305,106755.46218535912
365.89091410000003,102113.9523643284
365.3184196,97835.20424529957
364.7489221,93867.49789398424
364.18239689999996,90194.17708752444
363.61881960000005,86753.64242766863
363.058166,83473.29923495375
362.50041219999997,80329.5443995464
361.94553460000003,77313.67269613626
361.3935098,74492.84077862733
360.8443147,71748.19417929147
360.29792630000003,69095.79883221505
359.754322,66520.2801964528
359.2134795,64055.900189011925
358.6753765,61651.83493325048
358.1399912,59384.96080576869
357.6073018,57176.819293123204
357.077287,55025.39313869012
356.5499253,52926.87299579451
356.025196,50855.56896338307
355.50307799999996,48823.901837348014
354.983551,46825.959855175744
354.4665945,44853.06802621541
353.95218839999995,42910.593979278834
353.4403127,41004.21122031306
352.9309478,39149.34483706917
352.42407410000004,37344.09594373202
351.9196722,35634.4245931243
351.4177232,34033.232724098314
350.91820789999997,32471.74990355747
350.4211078,30960.173498595053
349.9264043,29510.909552806774
349.434079,28094.308383728603
348.9441137,26725.198138021533
348.45649060000005,25364.08756613958
347.97119169999996,23980.881706494532
347.48819960000003,22602.770813956395
347.0074967,21252.520859585922
346.5290657,19943.912478207472
346.0528897,18680.52030457537
345.5789517,17453.018299928797
345.1072349,16299.750304254028
344.6377228,15227.9500640532
344.17039889999995,14228.335340501564
343.70524710000007,13314.389988606277
343.24225110000003,12462.039040633432
342.7813952,11665.82457361964
342.32266339999995,10942.724412795815
341.8660403,10272.845719099236
341.4115102,9640.183411319389
340.959058,9063.579433641316
340.5086685,8542.598194059821
340.06032660000005,8050.543227053473
339.6140175,7599.0325322318495
339.1697264,7155.36864534408
338.7274388,6737.901519397703
338.28714019999995,6344.841354207387
337.8488164,5970.37052087607
337.41245310000005,5611.200789908141
336.9780363,5265.250486506251
336.5455522,4940.679645868255
336.114987,4625.283325616091
335.686327,4334.1233192228365
335.2595588,4045.288379216665
334.834669,3752.288196140968
334.4116443,3473.0654826856708
333.9904716,3187.3928372745577
333.57113799999996,2884.2360848160797
333.1536305,2565.378541236568
332.73793639999997,2249.2941276432366
332.32404310000004,1939.2877329533167
331.91193799999996,1639.5274190385544
331.5016088,1350.5257435757048
331.0930432,1081.0628204275513
330.6862289,834.2369317004018
330.281154,613.9977955417883
329.8778065,445.5251347693096
329.47617460000004,302.4255538238015
329.07624649999997,196.35507164384705
328.6780106,117.0796247897041
328.2814555,56.83080752849194
327.88656960000003,21.018442681183146
327.4933418,5.618087380148895
327.1017607,2.2623732090307875
326.7118154,-3.1661582861950075
326.32349480000005,-3.4462277701421744
325.93678789999996,1.4936341936712545
325.5516841,-3.2517237522970865
325.16817260000005,1.8973741054958813
324.7862428,0.7327954626250319
324.40588419999995,-4.301546059752428
324.0270864,-1.2208477358656125
323.649839,-0.18807480698856371
323.2741319,-0.007545829799599245
322.8999548,1.8923773811842244
322.5272977,2.00648177984674
322.1561508,-2.9385676557665588
321.786504,1.4173436185824468
321.4183476,-2.6835977857973243
321.0516719,3.9849871232890215
320.6864673,0.2756966172103467
320.3227243,-4.266279127479226
319.96043330000003,2.914443122880137
319.5995851,-1.5688425736613614
319.2401704,-0.17634558215510995
318.8821799,2.9678689785370955
318.5256045,-1.0842953771673896
318.1704352,-3.388962281687085
317.8166631,-2.2026478839764434
317.4642791,0.28298048596676795
317.1132746,-0.4347827156682072
316.76364069999994,0.6592745246529186
316.4153688,-1.8876976769810043
316.06845039999996,1.6416577153266292
315.72287689999996,2.6027141277594934
315.37863980000003,-2.3988921472707765
315.0357308,-0.2702523855230586
314.6941415,-0.3411441118223925
314.3538639,3.4881229324480136
314.0148896,1.051915015938481
313.6772106,1.3212654126601993
313.3408189,2.4789359749103617
313.00570639999995,3.224141852327549
312.67186549999997,-1.1949224423575502
312.33928810000003,4.004875692709673
312.0079665,-4.076865533189752
311.6778931,1.6231932570275864
311.34906010000003,1.582944831931273
311.0214601,-1.338207052054206
310.6950856,3.654656661751893
310.369929,0.12181991892925915
310.04598300000004,-0.027768394362049392
309.7232403,0.9793037287105308
309.4016935,1.6839104640352054
309.0813356,3.9865191154331963
308.7621594,1.3373527301522008
308.4441577,1.6004471630740031
308.1273236,2.484362465106187
307.8116501,-2.4575420288399243
307.49713019999996,-1.4929536419803182
307.18375710000004,-3.418227464017817
306.871524,-0.8166749935625419
306.5604242,-1.6686318559826885
306.2504509,2.1443734032235
