wave,flux
1817.164934,-4.778444656792407
1790.1022050000001,4.3194678061585465
1763.812741,-0.03715061055453095
1738.2646949999998,25.714457684754638
1713.427949,85.5665587283398
1689.273995,649.9120385447727
1665.7758310000002,2021.1926549399495
1642.907862,4174.206331502789
1620.64581,7136.515511593325
1598.9666300000001,11053.678485546685
1577.8484310000001,15926.093402774148
1557.270407,21809.09345142963
1537.212767,28669.32621208072
1517.65668,35748.388902243816
1498.5842089999999,42649.6205605235
1479.978265,49357.53241427503
1461.822555,55780.89716058409
1444.101535,61810.6466574711
1426.800368,67373.38670204888
1409.904887,72482.57904482126
1393.401553,77100.74305054954
1377.2774220000001,81528.59531603091
1361.520115,85794.67153410558
1346.117782,89899.90488701419
1331.059081,93932.97457808637
1316.3331449999998,97991.92089339119
1301.92956,101903.86256356801
1287.838342,105817.16756620511
1274.049912,109742.96772539227
1260.5550779999999,113608.35202225318
1247.345017,117727.9159741744
1234.4112519999999,121813.88731844381
1221.74564,125910.84171861867
1209.340352,130124.47462424966
1197.187859,134335.3093705661
1185.28092,138480.97292777186
1173.612564,142617.83389535177
1162.1760800000002,146711.05071038115
1150.9650060000001,150790.4160772918
1139.973115,154827.72449136467
1129.194406,158868.460415812
1118.623093,162852.1449788083
1108.253594,166820.93377035725
1098.0805269999998,171020.15178293886
1088.098695,174891.91867104248
1078.303081,178984.06237141576
1068.688841,183251.8369874906
1059.251295,187919.07995402897
1049.9859199999999,193232.75783543286
1040.8883449999998,199049.0265435341
1031.9543429999999,205888.65744501643
1023.1798259999999,213576.74993138196
1014.5608390000001,222591.156918804
1006.0935529999999,232268.5083651543
997.774265,243269.15147492485
989.5993858999999,255076.4003950983
981.5654412999999,267538.6620923011
973.6690651,280093.8617121775
965.9069952,293049.30237439764
958.2760697000001,305711.87883768533
950.7732231000001,317843.13294314145
943.3954827,329216.40202467353
936.1399648,339978.6698515457
929.0038716,350025.5181842795
921.9844879000001,359345.9903704937
915.0791782,367582.5989019983
908.2853836000002,376073.09661108727
901.6006193,383858.0456431097
895.0224714,392395.50817844865
888.548595,400631.58436586376
882.1767113,410926.6425975333
875.9046055,423404.23054860963
869.7301242999998,437376.1588453905
863.6511742999999,454594.4734257823
857.6657193,475299.7153366378
851.7717787,499812.0167691945
845.9674256000001,529830.1621449365
840.2507849,566135.4615219678
834.6200316000001,609767.7057757137
829.0733892000001,659325.4904569315
823.6091279,716290.0270446839
818.2255633999999,781725.8730967494
812.9210552000001,852749.4808334019
807.694005,927415.9658036623
802.5428559,1008975.0267727216
797.4660904,1093117.9901255104
792.4622299,1179148.3364375504
787.5298327,1269974.5210279552
782.6674933999999,1369878.4641043958
777.8738417999999,1487655.6774134268
773.1475413,1630149.7530262957
768.4872882999999,1808013.4094866985
763.8918112000001,2030777.882950975
759.3598692,2307045.15134535
754.8902515999999,2635155.3473575255
750.4817767999999,3006303.353441305
746.1332914,3417282.727269929
741.8436694000001,3835931.8482699436
737.6118116,4265107.941392223
733.4366444,4668672.0876067765
729.3171195,5032595.088624895
725.2522127999999,5336855.520754294
721.2409241,5580478.322618822
717.282276,5764240.32165559
713.3753136,5891508.342780419
709.5191037000001,5971651.4615632435
705.7127343,6015456.156425761
701.9553139,6034852.117037581
698.2459709,6037790.412194823
694.5838534,6043210.681496421
690.9681281000001,6041467.892886228
687.3979803,6043624.542485547
683.8726131,6040418.458564992
680.3912472999999,6043728.811533034
676.9531202000001,6041560.020284632
673.557486,6041747.304991557
670.2036149,6043035.611333927
666.8907926,6041574.306290164
663.6183202999999,6041540.209371977
660.3855139,6040056.026497657
657.1917038,6042729.003216185
654.0362346,6041864.515401045
650.9184646000001,6041586.693006908
647.8377654,6039840.569957833
644.7935217999999,6041701.07602358
641.7851312999999,6041247.630331517
638.8120038,6041843.793054173
635.8735614,6042505.951303244
632.9692378999999,6041013.318406029
630.0984786,6041033.0138860075
627.2607402000001,6042494.474308014
624.4554901,6043164.4598907875
621.6822068,6042591.125812535
618.940379,6040870.029027497
616.2295054,6041055.62208729
613.549095,6041560.411771698
610.8986664,6041266.366507671
608.2777476,6041635.068441872
605.6858758999999,6041564.744348793
603.1225977000001,6041861.129124551
600.5874682,6041631.375642077
598.0800512,6041262.239832237
595.5999188999999,6041439.529529338
593.1466518,6041050.956326338
590.7198384999999,6041244.353164513
588.3190752,6041071.01444452
585.943966,6041358.332849338
583.5941226,6041755.316083128
581.2691637,6041135.661973718
578.9687155,6041112.524375487
576.692411,6041178.686752345
574.4398902,6041115.5675042635
572.2107997,6041225.727643717
570.0047927,6041580.392668
567.8215287,6041558.014209583
565.6606737000001,6041559.596520213
563.5218996,6041192.965514941
561.4048845,6041028.075677337
559.3093121,6041498.504234877
557.2348721,6041869.966291447
555.1812597,6041284.9147141315
553.1481756000001,6041244.628228346
551.1353259,6041234.704492025
549.1424218999999,6041374.86112023
547.1691801,6041546.098705698
545.2153222000001,6041314.806690355
543.2805745000001,6041570.41308429
541.3646685,6041136.054872551
539.46734,6041465.636337191
537.5883299,6041196.123960023
535.7273833,6041461.337781249
533.8842498,6041566.297855808
532.0586836,6041717.692609129
530.2504428000001,6041274.669857767
528.45929,6041255.9341046875
526.6849915,6041344.113598647
524.927318,6041481.118916494
523.186044,6041724.265159615
521.4609475999999,6041760.788577426
519.7518110000001,6041373.4319727635
518.0584200000001,6041605.057500264
516.3805639,6041350.817784801
514.7180356,6041725.100541162
513.0706316000001,6041332.040178543
511.43815149999995,6041537.160377696
509.82039860000003,6041675.90565745
508.2171791999999,6041432.674765005
506.628303,6041497.01223216
505.05358269999994,6041486.152469003
503.4928341,6041413.404284341
501.9458762,6041463.740671795
500.41253059999997,6041318.362226248
498.8926222,6041685.281282994
497.3859785,6041308.207870953
495.89242989999997,6041368.754022159
494.4118094,6041005.134556172
492.943953,6041256.117411692
491.488699,6041233.5907994425
490.04588839999997,6041461.941158458
488.6153648,6041237.2018076535
487.19697429999997,6041618.925375101
485.7905654,6041597.912353668
484.39598889999996,6041574.9207788585
483.01309800000007,6041096.568160929
481.64174840000004,6041171.78749512
480.28179789999996,6041325.614300339
478.93310639999993,6041771.980654163
477.59553619999997,6041173.925289135
476.2689517,6041601.826644281
474.9532192,6041225.562867832
473.6482074,6041764.704232581
472.35378679999997,6041671.080478093
471.06982989999995,6041169.614096702
469.79621110000005,6041405.684909731
468.53280700000005,6041084.152543358
467.2794956999999,6041835.445965523
466.0361575,6041147.2055975525
464.80267410000005,6041042.17391348
463.5789295,6041148.68790279
462.364809,6041136.882390233
461.1601998,6041334.455093185
459.9649909,6041559.159046806
458.7790727,6041096.236375319
457.6023374,6041594.973458456
456.4346788,6041370.3500853535
455.2759921,6041234.80006615
454.12617439999997,6040938.902895216
452.9851239,6041774.171572335
451.85274060000006,6041802.94830673
450.7289258,6041319.9099045815
449.6135822,6041212.5787531175
448.5066141,6041150.538630429
447.407927,6041572.925720418
446.317428,6041163.332075474
445.23502520000005,6041188.0186939165
444.1606283,6040805.104899837
443.0941482,6041209.9578568265
442.03549699999996,6041419.653143061
440.9845882,6041098.910310398
439.9413364,6041067.768503423
438.9056575,6041066.250876468
437.87746860000004,6041498.303089195
436.85668780000003,6038873.532674716
435.8432345,6026986.98262454
434.83702930000004,6003149.265243738
433.83799369999997,5961653.883515785
432.84605039999997,5899557.414829864
431.8611232,5814595.404221237
430.8831369,5704993.020700918
429.9120175,5569690.0472839065
428.94769169999995,5414690.523997598
427.9900874,5251494.588281098
427.03913370000004,5089347.521322434
426.0947602,4938620.416196181
425.1568978,4807750.673925267
424.22547829999996,4701039.136398199
423.3004343,4624419.47714697
422.3816994,4579560.44758795
421.4692081,4564154.944015253
420.56289569999996,4570705.38840729
419.66269850000003,4593693.145866532
418.7685535,4624472.1959464485
417.8803987,4655832.221745389
416.9981727,4678978.028185533
416.12181519999996,4689745.188505438
415.25126639999996,4681811.078573502
414.38646760000006,4651695.66321965
413.5273605,4599054.5059340615
412.673888,4522837.930789761
411.8259934,4426444.37176532
410.9836208,4312926.788352112
410.14671519999996,4187796.302543617
409.3152221,4056345.503065359
408.48908789999996,3924328.761590575
407.66825960000006,3797591.745754925
406.8526847,3679374.546619982
406.0423117,3573338.2567712367
405.2370896,3480086.56092156
404.43696800000004,3399003.614153983
403.64189730000004,3328862.301694252
402.8518283,3266540.674403176
402.0667126,3209308.460478745
401.28650239999996,3153200.520216855
400.5111505,3095561.9843325624
399.7406101,3033743.855036916
398.9748353,2965600.752647438
398.2137806,2890409.573794061
397.457401,2807693.972592486
396.7056521,2718211.02632323
395.9584903,2623248.73708666
395.2158722,2524363.121364457
394.4777551,2423475.444226283
393.7440968,2323131.645834047
393.0148555,2225181.5680452944
392.2899901,2130761.844939097
391.56946,2041563.723671556
390.853225,1957506.146129676
390.1412452,1880141.119037833
389.43348169999996,1808108.5584225613
388.7298955,1741591.3485422526
388.03044839999995,1678640.3974325957
387.3351027,1618827.1044528752
386.6438209,1560875.2812617042
385.95656610000003,1503491.5685524154
385.2733019,1445307.9486218712
384.5939922,1385993.3474179727
383.9186014,1324165.8847278785
383.2470943,1259829.1331145037
382.5794362,1192480.0614848079
381.9155926,1121853.2605768123
381.2555296,1048744.589197355
380.59921360000004,973501.4717188736
379.9466115,897164.5166462021
379.29769039999996,820499.562740025
378.652418,744914.4322890919
378.0107622,671353.0624126612
377.37269130000004,601220.1489356639
376.73817410000004,535329.9595497141
376.1071796,474678.32796404656
375.47967719999997,419366.9869720538
374.8556368,370372.78212323674
374.2350283,327221.7172424908
373.6178223,290041.41287492035
373.0039896,258318.10679140012
372.3935012,231550.93513370445
371.78632860000005,209171.3954682618
371.1824436,190613.18299154655
370.5818182,175302.0750786583
369.98442489999996,162425.09942776966
369.39023629999997,151727.3341751433
368.7992255,142629.7931426793
368.2113658,134822.52176169353
367.6266307,128028.07692049212
367.0449943,122015.08443355675
366.4664305,116613.09125565537
365.89091410000003,111627.00465744654
365.3184196,107050.24693834773
364.7489221,102787.01386947233
364.18239689999996,98747.36744728773
363.61881960000005,94879.50866115658
363.058166,91200.88599041103
362.50041219999997,87665.38104258674
361.94553460000003,84227.76619520379
361.3935098,80960.80260595048
360.8443147,77769.75502067838
360.29792630000003,74681.77082301196
359.754322,71721.07190783862
359.2134795,68910.81367345223
358.6753765,66241.91906679727
358.1399912,63692.82717633495
357.6073018,61273.20145664353
357.077287,58941.36306784326
356.5499253,56713.781564257304
356.025196,54538.796505218175
355.50307799999996,52397.59223595392
354.983551,50275.65036634288
354.4665945,48177.68724352525
353.95218839999995,46119.450056842215
353.4403127,44058.01298427147
352.9309478,42007.52529166226
352.42407410000004,40006.66038488224
351.9196722,38062.46293768162
351.4177232,36174.17088169352
350.91820789999997,34309.682588168376
350.4211078,32496.18560492033
349.9264043,30744.27458502585
349.434079,29078.758744252627
348.9441137,27491.57807868354
348.45649060000005,25992.339722663968
347.97119169999996,24560.175456827594
347.48819960000003,23230.31298018117
347.0074967,22033.93653134666
346.5290657,20930.451453390804
346.0528897,19907.87967643505
345.5789517,18950.432061742733
345.1072349,18041.041650947907
344.6377228,17182.359924477933
344.17039889999995,16334.101469847838
343.70524710000007,15500.850435328495
343.24225110000003,14664.147237312334
342.7813952,13830.687296989956
342.32266339999995,13014.75907134301
341.8660403,12224.94161276228
341.4115102,11435.34599807999
340.959058,10681.471738088056
340.5086685,9959.176328964471
340.06032660000005,9280.666330243455
339.6140175,8650.062565890414
339.1697264,8053.096675457829
338.7274388,7499.904419344522
338.28714019999995,6964.5033723378
337.8488164,6484.678612065383
337.41245310000005,6026.696825723398
336.9780363,5600.596512406059
336.5455522,5210.427732552315
336.114987,4840.548242079256
335.686327,4475.402465605283
335.2595588,4138.954190184408
334.834669,3807.939769449616
334.4116443,3490.080769117937
333.9904716,3180.1056938444704
333.57113799999996,2878.4354003850667
333.1536305,2578.26978637307
332.73793639999997,2285.992196379477
332.32404310000004,1999.7891652581768
331.91193799999996,1725.9813244492386
331.5016088,1464.8328915172278
331.0930432,1230.058124264868
330.6862289,1010.22522875883
330.281154,814.7633201301362
329.8778065,630.259983654114
329.47617460000004,480.3496586650728
329.07624649999997,350.54310542122744
328.6780106,248.49860696689717
328.2814555,170.41021238838792
327.88656960000003,106.7482078788395
327.4933418,56.56840091650008
327.1017607,26.940980234640023
326.7118154,12.239892907515154
326.32349480000005,1.8829479143851904
325.93678789999996,1.4240894341000412
325.5516841,-0.8600280700505717
325.16817260000005,-1.6140444332834991
324.7862428,-2.029464536324088
324.40588419999995,2.8633327384661547
324.0270864,-0.28711710742980645
323.649839,-0.04095966430112983
323.2741319,0.3332567636576335
322.8999548,-1.9697623582155088
322.5272977,1.1387156610330034
322.1561508,-1.0688283012354634
321.786504,1.1324381663471057
321.4183476,-1.2729693994748956
321.0516719,-2.6800246523401663
320.6864673,-0.2348903986257015
320.3227243,-3.836692472788111
319.96043330000003,-2.683506706133709
319.5995851,1.0420786373794448
319.2401704,5.4101407539241055
318.8821799,-0.6161040120924991
318.5256045,0.6525548603887386
318.1704352,-1.1498403483906343
317.8166631,-1.1703431111946765
317.4642791,3.102138066408493
317.1132746,-0.7808102223239082
316.76364069999994,-5.1517863035434965
316.4153688,-1.756184051360265
316.06845039999996,-3.5068982221079463
315.72287689999996,-3.3716693707760697
315.37863980000003,3.324942133053912
315.0357308,3.7345928264487354
314.6941415,4.547045928462347
314.3538639,-5.4635244549076285
314.0148896,-0.3535940465105083
313.6772106,-0.8821625410154191
313.3408189,-1.0011291893352194
313.00570639999995,3.4631382666380937
312.67186549999997,0.5942299854025263
312.33928810000003,1.9021832228843047
312.0079665,-2.0817845330500586
311.6778931,0.9694255474532733
311.34906010000003,-0.5056767832373159
311.0214601,3.478795542174119
310.6950856,4.010263698734826
310.369929,-4.009597583648252
310.04598300000004,-0.5011593806360691
309.7232403,-1.933045795560971
309.4016935,-5.051842695990206
309.0813356,-0.5705238804586389
308.7621594,2.9211674077289183
308.4441577,-0.03913630048996642
308.1273236,1.034079327788067
307.8116501,-1.7589683553189974
307.49713019999996,0.7464082693101544
307.18375710000004,1.5456124138143124
306.871524,0.07951273509654525
306.5604242,3.468068748572392
306.2504509,-5.369541646500552
