wave,flux
1817.164934,-90.37723196900178
1790.1022050000001,-83.17481349445524
1763.812741,27.26181468310952
1738.2646949999998,67.56970115966551
1713.427949,187.11397342751545
1689.273995,5299.114125160767
1665.7758310000002,17424.729374302402
1642.907862,35929.152665991176
1620.64581,61542.52523138245
1598.9666300000001,93414.9077671066
1577.8484310000001,132551.18418611534
1557.270407,178145.69085369978
1537.212767,230262.5518180028
1517.65668,280118.63588696136
1498.5842089999999,324676.8618058628
1479.978265,363886.48879986396
1461.822555,397443.23075641436
1444.101535,425827.6882791572
1426.800368,448304.9115664592
1409.904887,464903.2503778056
1393.401553,476002.44065864023
1377.2774220000001,485427.2554805541
1361.520115,494222.92270276864
1346.117782,503305.4318263297
1331.059081,511915.6176822863
1316.3331449999998,519941.5531763297
1301.92956,527691.0974289239
1287.838342,535531.7347694132
1274.049912,543455.841357114
1260.5550779999999,551189.9939016214
1247.345017,558805.8063341385
1234.4112519999999,566428.2439269111
1221.74564,574475.4920268592
1209.340352,582453.1969205652
1197.187859,590373.9408368671
1185.28092,598239.8270158345
1173.612564,607219.2452054619
1162.1760800000002,614396.6395461829
1150.9650060000001,623723.7752645784
1139.973115,631905.2627880254
1129.194406,640326.6537059417
1118.623093,649371.7047564859
1108.253594,657948.9097430153
1098.0805269999998,666858.3186250988
1088.098695,674912.448941328
1078.303081,685860.0199249304
1068.688841,698091.8178348807
1059.251295,711935.8812355194
1049.9859199999999,732329.1061083879
1040.8883449999998,756869.6890920051
1031.9543429999999,790135.9128392134
1023.1798259999999,829401.2036441369
1014.5608390000001,877231.3605604399
1006.0935529999999,931488.3700151441
997.774265,993231.9128384177
989.5993858999999,1057731.3455462332
981.5654412999999,1124719.0002729858
973.6690651,1189852.31526423
965.9069952,1253234.1682377476
958.2760697000001,1309886.506700696
950.7732231000001,1358586.5970143543
943.3954827,1400118.6215010514
936.1399648,1431601.073529346
929.0038716,1453202.3995464132
921.9844879000001,1466877.4380891758
915.0791782,1473969.728050335
908.2853836000002,1477212.1912371141
901.6006193,1479966.104276119
895.0224714,1486321.4699352013
888.548595,1502423.5463342841
882.1767113,1534448.6339811082
875.9046055,1576039.066716728
869.7301242999998,1640787.7818974657
863.6511742999999,1729262.35566184
857.6657193,1845085.6654840969
851.7717787,1995164.677892352
845.9674256000001,2183245.4218670265
840.2507849,2414586.019791773
834.6200316000001,2698232.864672889
829.0733892000001,3020701.216129268
823.6091279,3375027.8288196763
818.2255633999999,3758998.262340838
812.9210552000001,4150363.5871670437
807.694005,4539831.267423524
802.5428559,4898404.361511627
797.4660904,5220218.810096108
792.4622299,5478525.230907658
787.5298327,5678735.203210269
782.6674933999999,5831030.823939413
777.8738417999999,5933201.759878015
773.1475413,5995212.778157357
768.4872882999999,6028967.010622939
763.8918112000001,6039235.244007338
759.3598692,6041302.104438287
754.8902515999999,6040685.959189308
750.4817767999999,6040537.295513548
746.1332914,6040540.3537879335
741.8436694000001,6042183.219854194
737.6118116,6043925.005195059
733.4366444,6039498.872420949
729.3171195,6041784.323946887
725.2522127999999,6041855.798526144
721.2409241,6040114.910847369
717.282276,6039700.218124633
713.3753136,6040893.384193996
709.5191037000001,6037625.281872397
705.7127343,6041513.402774902
701.9553139,6041715.10458451
698.2459709,6038338.977360154
694.5838534,6042481.027958504
690.9681281000001,6042754.471185416
687.3979803,6040549.675003872
683.8726131,6040457.783760218
680.3912472999999,6040755.58065962
676.9531202000001,6041333.016519729
673.557486,6042533.621023755
670.2036149,6040842.04574157
666.8907926,6040844.214887349
663.6183202999999,6039939.56394993
660.3855139,6041472.243188184
657.1917038,6041710.465717669
654.0362346,6039026.866390898
650.9184646000001,6040308.332525116
647.8377654,6041438.092014682
644.7935217999999,6043120.337514147
641.7851312999999,6041495.270154961
638.8120038,6041562.282203778
635.8735614,6040740.2217185125
632.9692378999999,6041998.9958301075
630.0984786,6041517.237131375
627.2607402000001,6041478.073892217
624.4554901,6040768.278761912
621.6822068,6042473.944388293
618.940379,6041850.6253786925
616.2295054,6041365.688659447
613.549095,6041208.547526242
610.8986664,6041223.488989315
608.2777476,6041194.995387706
605.6858758999999,6041694.767804755
603.1225977000001,6041382.468930285
600.5874682,6041373.095922895
598.0800512,6041053.541359197
595.5999188999999,6041523.571089042
593.1466518,6041678.391201696
590.7198384999999,6041184.3999244375
588.3190752,6041436.170009592
585.943966,6041403.702475694
583.5941226,6041306.897032113
581.2691637,6041475.049136718
578.9687155,6041618.008165854
576.692411,6041407.696868305
574.4398902,6041206.167338953
572.2107997,6041588.681083758
570.0047927,6041658.676009724
567.8215287,6041243.553258343
565.6606737000001,6041444.644700265
563.5218996,6041408.541032188
561.4048845,6041479.864631979
559.3093121,6041143.960003979
557.2348721,6041077.931798558
555.1812597,6041142.174961178
553.1481756000001,6041462.217015085
551.1353259,6041331.152244044
549.1424218999999,6041244.374805598
547.1691801,6041930.80172426
545.2153222000001,6041013.463238702
543.2805745000001,6041557.709887346
541.3646685,6041304.832660841
539.46734,6041716.112528419
537.5883299,6041333.99815278
535.7273833,6041616.980526521
533.8842498,6041357.197543927
532.0586836,6041560.3531607175
530.2504428000001,6041346.751151493
528.45929,6041620.618851133
526.6849915,6041234.987958873
524.927318,6040818.759567033
523.186044,6041474.216527677
521.4609475999999,6041526.106878437
519.7518110000001,6041369.062669109
518.0584200000001,6041384.187280928
516.3805639,6041824.786086087
514.7180356,6041640.109506841
513.0706316000001,6041976.452834099
511.43815149999995,6040937.11960669
509.82039860000003,6041570.061303682
508.2171791999999,6041493.5624507
506.628303,6041446.543872933
505.05358269999994,6041752.668224429
503.4928341,6041017.280448744
501.9458762,6042047.630952572
500.41253059999997,6041503.173019714
498.8926222,6041304.867920989
497.3859785,6041099.783036417
495.89242989999997,6041005.980589737
494.4118094,6041760.9914613385
492.943953,6041317.319378985
491.488699,6040971.449414565
490.04588839999997,6041674.538404801
488.6153648,6041124.985931075
487.19697429999997,6041545.437075998
485.7905654,6041435.912242867
484.39598889999996,6041469.738911852
483.01309800000007,6041727.483693486
481.64174840000004,6041610.867617881
480.28179789999996,6041296.490253086
478.93310639999993,6041706.618212568
477.59553619999997,6041098.999746177
476.2689517,6041669.266047935
474.9532192,6041122.895838433
473.6482074,6041394.56994465
472.35378679999997,6041223.143815075
471.06982989999995,6041201.814809044
469.79621110000005,6041310.116579485
468.53280700000005,6034977.057388644
467.2794956999999,6018013.081614503
466.0361575,5986658.981100513
464.80267410000005,5939073.153496983
463.5789295,5872692.9204403125
462.364809,5784942.208007753
461.1601998,5673867.719790001
459.9649909,5536801.816623099
458.7790727,5383949.616591455
457.6023374,5220509.2382544065
456.4346788,5048609.470540779
455.2759921,4871635.5995891625
454.12617439999997,4689975.450277676
452.9851239,4504489.815848757
451.85274060000006,4317121.35704036
450.7289258,4129740.9734196085
449.6135822,3937820.925472916
448.5066141,3742491.706827626
447.407927,3545099.0262568337
446.317428,3348693.735895013
445.23502520000005,3157229.717426638
444.1606283,2974561.195882884
443.0941482,2804273.95536231
442.03549699999996,2649278.187350444
440.9845882,2510000.7079802123
439.9413364,2386277.15832116
438.9056575,2275133.851743336
437.87746860000004,2173119.8080502944
436.85668780000003,2076384.8881700903
435.8432345,1980305.8786798944
434.83702930000004,1881479.0148105824
433.83799369999997,1777439.6094536718
432.84605039999997,1667449.0736308843
431.8611232,1552412.5048939602
430.8831369,1434607.874017732
429.9120175,1315780.2537900815
428.94769169999995,1199971.4927363314
427.9900874,1089596.0590687692
427.03913370000004,987485.2490251262
426.0947602,895107.1768465687
425.1568978,813332.3845907731
424.22547829999996,742488.5051173616
423.3004343,681651.0098041304
422.3816994,630483.651848361
421.4692081,587498.83719043
420.56289569999996,551852.689834024
419.66269850000003,522163.3217362057
418.7685535,497049.2698636978
417.8803987,475508.1165115037
416.9981727,456694.1671327316
416.12181519999996,439947.28945674095
415.25126639999996,424600.1058172905
414.38646760000006,410289.7931009941
413.5273605,396843.2130182566
412.673888,384122.47780846397
411.8259934,372163.0063800821
410.9836208,360814.75233252964
410.14671519999996,350169.3192514212
409.3152221,340138.41173021845
408.48908789999996,330690.3992827368
407.66825960000006,321699.94293591165
406.8526847,313091.6377270905
406.0423117,304740.23415054794
405.2370896,296569.3261265625
404.43696800000004,288586.8736470116
403.64189730000004,280790.9564108472
402.8518283,273164.50091040385
402.0667126,265747.20059157256
401.28650239999996,258554.40444998303
400.5111505,251552.51869152655
399.7406101,243300.96195827908
398.9748353,233773.4921435943
398.2137806,222982.28105029566
397.457401,210565.9167880805
396.7056521,196522.86649788386
395.9584903,180796.77805544253
395.2158722,163496.86129844247
394.4777551,144684.95042433895
393.7440968,127381.92886021314
393.0148555,111568.71222495103
392.2899901,97103.4955226028
391.56946,84735.34950005716
390.853225,74429.24757598536
390.1412452,66201.83073725995
389.43348169999996,59983.656894720705
388.7298955,55711.107095661326
388.03044839999995,51793.06847320557
387.3351027,48251.730665238036
386.6438209,45323.64348524623
385.95656610000003,42613.193961746496
385.2733019,40084.069500854224
384.5939922,37761.64914518842
383.9186014,35603.684311324905
383.2470943,33603.854570876545
382.5794362,31765.005511210788
381.9155926,30105.82085615145
381.2555296,28489.08379827576
380.59921360000004,26942.009503555426
379.9466115,25401.145392164868
379.29769039999996,23860.442475249693
378.652418,22333.026030835186
378.0107622,20898.613420755857
377.37269130000004,19547.19509906
376.73817410000004,18262.083502889625
376.1071796,17039.9618158343
375.47967719999997,15851.721032160813
374.8556368,14723.914694171799
374.2350283,13699.052312656784
373.6178223,12749.616326535664
373.0039896,11817.935016956773
372.3935012,10881.735531842252
371.78632860000005,9956.9128584541
371.1824436,9058.358513619309
370.5818182,8229.168212832943
369.98442489999996,7424.693624961759
369.39023629999997,6650.132012332541
368.7992255,5897.723625224573
368.2113658,5238.046664628021
367.6266307,4665.162445560596
367.0449943,4185.6323562607595
366.4664305,3771.412031773324
365.89091410000003,3392.3639767301825
365.3184196,3055.447547450509
364.7489221,2755.850167380374
364.18239689999996,2473.1920608865075
363.61881960000005,2190.8938681655013
363.058166,1906.1521257862746
362.50041219999997,1615.4320489396528
361.94553460000003,1327.98326728359
361.3935098,1049.3848710644525
360.8443147,799.6763439106699
360.29792630000003,578.1524086521906
359.754322,407.16441238328514
359.2134795,266.20934714161154
358.6753765,161.4899494195543
358.1399912,93.99839561977079
357.6073018,43.8405687583771
357.077287,15.387925477216005
356.5499253,3.4965551824341574
356.025196,-5.196964846858762
355.50307799999996,-4.432373066068716
354.983551,-0.6939234118329461
354.4665945,3.010724203858012
353.95218839999995,-0.9019620437114076
353.4403127,2.8314177784309256
352.9309478,-1.5448551240529016
352.42407410000004,1.8416461278424416
351.9196722,0.6496585240478365
351.4177232,3.3725610822207486
350.91820789999997,-1.0150694439501575
350.4211078,0.8288499026711799
349.9264043,3.3856825065580334
349.434079,3.3317082543531176
348.9441137,-0.5230751700975139
348.45649060000005,2.4515386193060245
347.97119169999996,2.347731702978578
347.48819960000003,-1.7411364386515866
347.0074967,-2.7277644305803914
346.5290657,-0.3612949347696469
346.0528897,-3.8896050724531066
345.5789517,5.094550581763639
345.1072349,0.5155481312404424
344.6377228,0.22197946318762546
344.17039889999995,-0.9079683460792276
343.70524710000007,1.4142145430951916
343.24225110000003,3.982172808316043
342.7813952,3.464905372351577
342.32266339999995,1.9021823351777458
341.8660403,-6.43886782249207
341.4115102,-1.3223357772644178
340.959058,3.1663748121624837
340.5086685,-4.039066057058144
340.06032660000005,-1.9899323686407215
339.6140175,-1.920142774528203
339.1697264,-0.4541328108152336
338.7274388,-1.0166616291101611
338.28714019999995,-4.009036832459491
337.8488164,-2.2081767615946544
337.41245310000005,2.2117841544110832
336.9780363,-0.9441214130699541
336.5455522,1.3092590580340682
336.114987,0.947348789252104
335.686327,-5.338837623642539
335.2595588,0.27303753490909305
334.834669,1.1552067792710354
334.4116443,-1.9821204479499093
333.9904716,3.1916320270151335
333.57113799999996,0.8598890882629541
333.1536305,3.9398173048192864
332.73793639999997,-3.910514905047701
332.32404310000004,-2.314648615199109
331.91193799999996,2.5092382058080296
331.5016088,2.9997958876959334
331.0930432,-3.6893878948033016
330.6862289,1.3619427519892322
330.281154,0.2771325230558989
329.8778065,0.8402357090498984
329.47617460000004,-0.94504972283391
329.07624649999997,-0.4008048039966559
328.6780106,3.077398806105132
328.2814555,-1.1602432090028514
327.88656960000003,1.4182581943085413
327.4933418,-3.558269822954143
327.1017607,4.238110697540109
326.7118154,-2.4487089318919377
326.32349480000005,-2.4283048328112167
325.93678789999996,1.3129990169940635
325.5516841,1.6924483564534951
325.16817260000005,0.11761856950564392
324.7862428,-0.24217140491088374
324.40588419999995,0.3119479793908145
324.0270864,-2.238987280723652
323.649839,-1.799395284734548
323.2741319,2.852664613265341
322.8999548,-3.715805315170004
322.5272977,2.234593792337852
322.1561508,-0.5466333027538873
321.786504,1.7227338149761249
321.4183476,-2.1409634846969845
321.0516719,4.403188491752356
320.6864673,1.9102305218368667
320.3227243,2.5492478604627165
319.96043330000003,2.5186762020787588
319.5995851,0.7495215117109807
319.2401704,1.3933926379141752
318.8821799,-1.944640789265172
318.5256045,-0.6258170375825711
318.1704352,0.6509304370407648
317.8166631,-2.0699127439274028
317.4642791,-2.7495120156674275
317.1132746,-2.8644046610096447
316.76364069999994,-4.11661348330989
316.4153688,-1.1000918380680014
316.06845039999996,-0.3714074289041634
315.72287689999996,3.9488425440881154
315.37863980000003,1.2123271394371185
315.0357308,-1.3585486824826076
314.6941415,2.973447492117109
314.3538639,-2.257900495409197
314.0148896,-1.3989579434761923
313.6772106,-2.7512446367290733
313.3408189,3.5125938091839184
313.00570639999995,-3.2720314503593744
312.67186549999997,-0.35704476573435073
312.33928810000003,-2.8539183931317624
312.0079665,-1.7469717652838606
311.6778931,0.873347660746984
311.34906010000003,0.9134297213170745
311.0214601,1.5691266201709466
310.6950856,0.10441585481618733
310.369929,0.17189447186516135
310.04598300000004,-1.1997673678701168
309.7232403,2.794916576680175
309.4016935,0.44199865174315933
309.0813356,0.5406399128430054
308.7621594,-4.1785653653387405
308.4441577,0.4510875651839807
308.1273236,0.9563669798904648
307.8116501,-3.4830920175957942
307.49713019999996,-0.9009568331212788
307.18375710000004,1.5118542252245302
306.871524,2.7015025601291445
306.5604242,-1.7774901606238518
306.2504509,0.7616400785318176
