wave,flux
1817.164934,-18.849807243125934
1790.1022050000001,-7.273142251569692
1763.812741,27.81766483137936
1738.2646949999998,17.69914954027988
1713.427949,99.7681650719185
1689.273995,397.9437726490915
1665.7758310000002,2572.6555677808
1642.907862,6678.1089490975655
1620.64581,12680.361187828277
1598.9666300000001,20706.101367529718
1577.8484310000001,30569.04934664561
1557.270407,42383.8220946813
1537.212767,56207.99921956832
1517.65668,71515.84122919707
1498.5842089999999,85502.55472271476
1479.978265,97995.86574647241
1461.822555,109122.67864985293
1444.101535,118701.47209867465
1426.800368,126900.8741415429
1409.904887,133581.2007942041
1393.401553,138799.12427014374
1377.2774220000001,142697.14892172365
1361.520115,146477.49592941225
1346.117782,150332.85961368534
1331.059081,154005.67584870275
1316.3331449999998,157578.43380960677
1301.92956,161014.63486667548
1287.838342,164349.69854039722
1274.049912,167554.5680569272
1260.5550779999999,170637.07647694755
1247.345017,173434.73601678724
1234.4112519999999,176152.8040123052
1221.74564,178966.45980981077
1209.340352,181544.47037310843
1197.187859,184085.9039895036
1185.28092,186802.3274457867
1173.612564,189645.4972261506
1162.1760800000002,192743.8488954891
1150.9650060000001,195783.30275243602
1139.973115,198920.8044193598
1129.194406,202348.81049373726
1118.623093,205776.04501352576
1108.253594,209109.2234199188
1098.0805269999998,212695.21747278058
1088.098695,216210.33688637766
1078.303081,220147.52378427872
1068.688841,224405.5227877204
1059.251295,229880.1325721677
1049.9859199999999,236453.70588878612
1040.8883449999998,244538.24040677532
1031.9543429999999,254576.38321361624
1023.1798259999999,267198.06941885856
1014.5608390000001,282086.67484209145
1006.0935529999999,299643.0963556233
997.774265,318844.19785784674
989.5993858999999,340260.63513188245
981.5654412999999,362523.8642691543
973.6690651,385246.01367833494
965.9069952,406858.26564018725
958.2760697000001,427923.8587901568
950.7732231000001,447287.8062224944
943.3954827,464360.7146276942
936.1399648,478508.2386324828
929.0038716,490078.0644945509
921.9844879000001,500235.2634042955
915.0791782,507789.9013926995
908.2853836000002,514458.35531185096
901.6006193,520659.1841619752
895.0224714,526631.8479386383
888.548595,535591.7035534931
882.1767113,547354.693851735
875.9046055,563324.2360701971
869.7301242999998,583766.6538897977
863.6511742999999,611219.2479688984
857.6657193,645519.2434505089
851.7717787,688589.560121962
845.9674256000001,743064.2208676556
840.2507849,810296.6314117459
834.6200316000001,891028.4324414664
829.0733892000001,992044.8710062829
823.6091279,1103395.99203503
818.2255633999999,1230845.8133200374
812.9210552000001,1370414.900436209
807.694005,1517855.8657052568
802.5428559,1667955.3708363532
797.4660904,1821232.117783401
792.4622299,1971457.3714047263
787.5298327,2127995.63060046
782.6674933999999,2297175.2534855963
777.8738417999999,2495094.2786894273
773.1475413,2730045.27652402
768.4872882999999,3003725.9005974443
763.8918112000001,3314703.8088700194
759.3598692,3666034.238423755
754.8902515999999,4044078.681824123
750.4817767999999,4426174.700354396
746.1332914,4806606.974647646
741.8436694000001,5137553.508509758
737.6118116,5417934.219271022
733.4366444,5641665.204972781
729.3171195,5810627.20322281
725.2522127999999,5925766.205379725
721.2409241,5997628.821365076
717.282276,6030600.190329225
713.3753136,6038943.0950503675
709.5191037000001,6040132.59416587
705.7127343,6040674.988600782
701.9553139,6042159.357590603
698.2459709,6040872.866645379
694.5838534,6042384.743703524
690.9681281000001,6044217.307039669
687.3979803,6044446.49714652
683.8726131,6042813.258607077
680.3912472999999,6040821.175389533
676.9531202000001,6040601.490261203
673.557486,6038672.4748992175
670.2036149,6039193.6168578565
666.8907926,6039577.108988867
663.6183202999999,6042891.713694727
660.3855139,6041339.287110432
657.1917038,6040116.8345888015
654.0362346,6043034.871583524
650.9184646000001,6042609.224311184
647.8377654,6041077.803127242
644.7935217999999,6041317.673773888
641.7851312999999,6040092.968605346
638.8120038,6041457.611079081
635.8735614,6041967.514738134
632.9692378999999,6042074.446673312
630.0984786,6041229.683963928
627.2607402000001,6040405.052180758
624.4554901,6040065.781840855
621.6822068,6040299.074852244
618.940379,6042109.371604377
616.2295054,6041135.622964454
613.549095,6041455.736624135
610.8986664,6041302.47213944
608.2777476,6041150.6926727425
605.6858758999999,6041338.238680167
603.1225977000001,6041196.7563298475
600.5874682,6041778.549588143
598.0800512,6041411.393280598
595.5999188999999,6041571.769602265
593.1466518,6041339.85877792
590.7198384999999,6041525.106600404
588.3190752,6041578.94461874
585.943966,6041627.936535804
583.5941226,6041457.702866589
581.2691637,6041232.82129419
578.9687155,6041236.810929832
576.692411,6041427.474074479
574.4398902,6041411.432001537
572.2107997,6041491.886062003
570.0047927,6041672.017471222
567.8215287,6041415.907944863
565.6606737000001,6041194.32524734
563.5218996,6041219.339533002
561.4048845,6041299.269369815
559.3093121,6041176.614685484
557.2348721,6041268.487207759
555.1812597,6041408.679454343
553.1481756000001,6042114.547135345
551.1353259,6041827.689418149
549.1424218999999,6041440.862490135
547.1691801,6041561.447186718
545.2153222000001,6041863.623737996
543.2805745000001,6040909.278653546
541.3646685,6041248.207004845
539.46734,6041287.44077978
537.5883299,6041188.540010214
535.7273833,6041670.931131984
533.8842498,6041143.940642401
532.0586836,6041332.126673311
530.2504428000001,6041810.057774017
528.45929,6041835.611996212
526.6849915,6041343.349734583
524.927318,6041739.083899401
523.186044,6041991.742967725
521.4609475999999,6041504.22048851
519.7518110000001,6041484.315626994
518.0584200000001,6042134.298847133
516.3805639,6041246.95332056
514.7180356,6040997.182314486
513.0706316000001,6041610.580614679
511.43815149999995,6041486.463525881
509.82039860000003,6041371.812991221
508.2171791999999,6041606.546245838
506.628303,6041546.131662051
505.05358269999994,6041130.370056193
503.4928341,6041401.713827606
501.9458762,6041442.556164848
500.41253059999997,6041443.403080688
498.8926222,6041496.975467219
497.3859785,6041818.42219805
495.89242989999997,6041458.176006112
494.4118094,6041203.589979458
492.943953,6041654.34416402
491.488699,6041797.409059161
490.04588839999997,6041378.075875482
488.6153648,6041323.733044647
487.19697429999997,6041476.055585957
485.7905654,6041432.181835188
484.39598889999996,6041535.640622417
483.01309800000007,6041372.839898895
481.64174840000004,6041594.891846574
480.28179789999996,6041402.809143622
478.93310639999993,6041282.2499811025
477.59553619999997,6041519.26280591
476.2689517,6041620.244768145
474.9532192,6041251.163814841
473.6482074,6041377.742026956
472.35378679999997,6041302.918450032
471.06982989999995,6041582.443433672
469.79621110000005,6040777.414545137
468.53280700000005,6041169.96373004
467.2794956999999,6041450.947636574
466.0361575,6041436.516986439
464.80267410000005,6041215.132637791
463.5789295,6041492.849171562
462.364809,6041473.469725017
461.1601998,6041382.978435373
459.9649909,6041650.443480773
458.7790727,6041049.577244792
457.6023374,6041418.904110071
456.4346788,6041469.367274919
455.2759921,6041227.070851195
454.12617439999997,6041362.173922901
452.9851239,6041456.041083693
451.85274060000006,6041210.409246392
450.7289258,6041449.701189474
449.6135822,6041200.511312258
448.5066141,6041364.946470657
447.407927,6041510.943995229
446.317428,6040696.15412386
445.23502520000005,6041374.416153011
444.1606283,6041469.78904703
443.0941482,6041378.076562576
442.03549699999996,6041143.644369488
440.9845882,6041200.665776089
439.9413364,6040987.1845116075
438.9056575,6041449.462785264
437.87746860000004,6041096.218489068
436.85668780000003,6041254.823473029
435.8432345,6041359.673805865
434.83702930000004,6041341.148889443
433.83799369999997,6041244.781801542
432.84605039999997,6041667.991742877
431.8611232,6041299.264185396
430.8831369,6041439.571815744
429.9120175,6041138.300718668
428.94769169999995,6041215.987814839
427.9900874,6041518.24387259
427.03913370000004,6041800.660040122
426.0947602,6041497.444311616
425.1568978,6041096.383125302
424.22547829999996,6041392.671901825
423.3004343,6041214.924822932
422.3816994,6041305.513768513
421.4692081,6041099.5357263
420.56289569999996,6040982.903939833
419.66269850000003,6041493.15702501
418.7685535,6041401.058268557
417.8803987,6041508.397047447
416.9981727,6041416.800983499
416.12181519999996,6041305.114434423
415.25126639999996,6041387.29440176
414.38646760000006,6041432.953265286
413.5273605,6038546.744999413
412.673888,6026341.960381024
411.8259934,5998259.295222462
410.9836208,5947954.653024464
410.14671519999996,5868110.972978454
409.3152221,5752707.434696314
408.48908789999996,5595956.444307809
407.66825960000006,5391535.71740204
406.8526847,5141525.201166485
406.0423117,4853686.01433289
405.2370896,4536666.165190186
404.43696800000004,4201998.377310439
403.64189730000004,3860170.177488223
402.8518283,3521346.9302808545
402.0667126,3196802.0967879626
401.28650239999996,2894404.2640297525
400.5111505,2620784.8377841143
399.7406101,2374843.1728331065
398.9748353,2155474.2636256004
398.2137806,1961433.4504318829
397.457401,1790074.386049211
396.7056521,1638494.58153442
395.9584903,1503715.8157260884
395.2158722,1382920.0658978266
394.4777551,1273994.4221631165
393.7440968,1178815.152210785
393.0148555,1095220.974903913
392.2899901,1021535.3893111132
391.56946,956650.2917159591
390.853225,900107.159398988
390.1412452,850454.2736220324
389.43348169999996,806636.6244471748
388.7298955,767535.4484101569
388.03044839999995,730605.8258346845
387.3351027,694524.5868624428
386.6438209,661632.7182162566
385.95656610000003,630706.59883461
385.2733019,601509.3268893281
384.5939922,574426.6845905064
383.9186014,549184.305936204
383.2470943,525560.3610223325
382.5794362,503502.0644995029
381.9155926,482827.7218176506
381.2555296,462458.4374921264
380.59921360000004,442140.59504543367
379.9466115,421895.5937417854
379.29769039999996,401572.4186428558
378.652418,381003.91752058
378.0107622,361081.37722279935
377.37269130000004,341881.4696569174
376.73817410000004,323665.4204825171
376.1071796,306459.8397491199
375.47967719999997,290292.1390846652
374.8556368,275245.7995067226
374.2350283,261441.1516106177
373.6178223,248829.98967059655
373.0039896,237144.4031898507
372.3935012,226081.35587160094
371.78632860000005,215638.7504581905
371.1824436,205759.36761932122
370.5818182,196394.12835225865
369.98442489999996,187464.98396656095
369.39023629999997,179051.50667152327
368.7992255,171002.77054065894
368.2113658,163423.5022724627
367.6266307,156184.37589938776
367.0449943,149438.15361652433
366.4664305,143068.3044571997
365.89091410000003,137092.88490539856
365.3184196,131090.38489504196
364.7489221,125067.4720600773
364.18239689999996,118658.9914713314
363.61881960000005,111873.10912533477
363.058166,104698.8149135307
362.50041219999997,97141.16842235775
361.94553460000003,89174.79412779174
361.3935098,80814.03657554346
360.8443147,72802.65437345106
360.29792630000003,65166.115121971015
359.754322,58417.19490249072
359.2134795,52544.94920533813
358.6753765,47515.066688192586
358.1399912,43315.77468784609
357.6073018,39899.63286579038
357.077287,37223.61864939171
356.5499253,34892.86654797703
356.025196,32865.36457377505
355.50307799999996,30910.192350430985
354.983551,29000.304653239946
354.4665945,27122.094684006974
353.95218839999995,25290.450917662998
353.4403127,23531.9935668939
352.9309478,21872.073298187806
352.42407410000004,20280.79226367385
351.9196722,18810.17673452859
351.4177232,17418.640454820776
350.91820789999997,16112.559300121455
350.4211078,14846.949377267087
349.9264043,13590.895779511591
349.434079,12327.251863289648
348.9441137,11070.938694191354
348.45649060000005,9814.89263936761
347.97119169999996,8559.708277707316
347.48819960000003,7302.974733653359
347.0074967,6066.784848639825
346.5290657,4947.574927194416
346.0528897,3967.960933628607
345.5789517,3123.757140816269
345.1072349,2413.3616978456826
344.6377228,1817.3185248003367
344.17039889999995,1341.3334747269735
343.70524710000007,993.4140619474775
343.24225110000003,740.5355585402938
342.7813952,539.7923701853147
342.32266339999995,370.39814863704885
341.8660403,244.36723580718134
341.4115102,149.5608368602207
340.959058,89.22328497058086
340.5086685,45.78391039439129
340.06032660000005,21.935492425026787
339.6140175,4.6212994865325685
339.1697264,-0.12846723687271022
338.7274388,-3.734829135924669
338.28714019999995,0.16859700661614369
337.8488164,-0.4934119017398453
337.41245310000005,1.2165525443226155
336.9780363,2.278159262937401
336.5455522,-1.0848947751988225
336.114987,0.4913527409449893
335.686327,0.9321827263731448
335.2595588,0.6242120176260837
334.834669,-1.1021759796721713
334.4116443,1.37616445498923
333.9904716,2.963260625244615
333.57113799999996,1.510207192602978
333.1536305,-1.5886992666851718
332.73793639999997,1.525963998488703
332.32404310000004,-0.27268740814535875
331.91193799999996,1.9279589348026704
331.5016088,-0.26152549170337297
331.0930432,0.08826795107750639
330.6862289,-1.837030863101061
330.281154,4.016109810743111
329.8778065,-1.9176251026812423
329.47617460000004,-0.9212254415267042
329.07624649999997,1.7840391601288164
328.6780106,-0.2904771955607712
328.2814555,-2.500183805551145
327.88656960000003,0.42792727482596504
327.4933418,-1.663833902734685
327.1017607,-3.562132590678809
326.7118154,-3.2375536212142633
326.32349480000005,-5.516600258768191
325.93678789999996,2.989949920627513
325.5516841,2.9675186101810302
325.16817260000005,-0.4296031909953463
324.7862428,0.455265867742936
324.40588419999995,-2.455872084410971
324.0270864,2.367099743765435
323.649839,0.4851393772851583
323.2741319,-1.2187105399249525
322.8999548,-2.1838835070223097
322.5272977,3.5085459372313044
322.1561508,-3.1281995040285446
321.786504,3.7935310903568764
321.4183476,0.0658556361942944
321.0516719,0.035361430174801325
320.6864673,-3.8613512602215945
320.3227243,-0.735222454472685
319.96043330000003,0.6832034519373037
319.5995851,-1.7202239747800872
319.2401704,-2.7934829033091164
318.8821799,2.476303006881024
318.5256045,6.259620375710182
318.1704352,-0.6977213925739058
317.8166631,2.2319121531445343
317.4642791,-0.906445158789168
317.1132746,1.9865757998612048
316.76364069999994,2.8269649167387474
316.4153688,0.7015859960373974
316.06845039999996,-4.47027153646284
315.72287689999996,-0.6936720079040039
315.37863980000003,-3.935992646961741
315.0357308,0.12790614152372445
314.6941415,-1.7973199978202832
314.3538639,4.404555618771312
314.0148896,1.4629391356530304
313.6772106,1.4434266060498735
313.3408189,1.992295182693454
313.00570639999995,0.21146913916074472
312.67186549999997,2.3405176080832577
312.33928810000003,-2.7946874695462203
312.0079665,2.334441273162732
311.6778931,5.34117287386821
311.34906010000003,1.5770529811165643
311.0214601,3.932829298669352
310.6950856,-1.761843252550829
310.369929,4.545762792599646
310.04598300000004,0.9933377124977923
309.7232403,2.9438600683316802
309.4016935,-0.960398485441922
309.0813356,2.2714642350287693
308.7621594,-1.6966917073700356
308.4441577,0.7620891931515786
308.1273236,-6.599178964501276
307.8116501,1.5153463172150252
307.49713019999996,-2.93552431471273
307.18375710000004,0.55043694032555
306.871524,-4.2068937286400745
306.5604242,0.4856029385677261
306.2504509,-0.3679382075466758
