wave,flux
1817.164934,-15.861534902794613
1790.1022050000001,22.96473576905222
1763.812741,13.677061686888411
1738.2646949999998,17.304420540252618
1713.427949,83.51032659218865
1689.273995,569.5731647834874
1665.7758310000002,1616.478458140116
1642.907862,3245.423937596804
1620.64581,5477.718664946517
1598.9666300000001,8357.84867644723
1577.8484310000001,11989.134327989455
1557.270407,16224.485281165898
1537.212767,21184.209418305985
1517.65668,26118.066455256856
1498.5842089999999,30887.243909277477
1479.978265,35439.342961897746
1461.822555,39692.09395519258
1444.101535,43581.49600429495
1426.800368,47106.08317959033
1409.904887,50174.47369456197
1393.401553,52831.35910123248
1377.2774220000001,55283.39513378383
1361.520115,57647.387169626796
1346.117782,59948.20850009532
1331.059081,62008.676659036835
1316.3331449999998,64004.897167260555
1301.92956,65871.95208025521
1287.838342,67609.906287634
1274.049912,69248.79421613796
1260.5550779999999,70813.42532565653
1247.345017,72366.9249016885
1234.4112519999999,73886.29084914048
1221.74564,75438.62845946591
1209.340352,77009.67008920353
1197.187859,78629.90130888163
1185.28092,80389.74038257758
1173.612564,82229.79359056492
1162.1760800000002,84126.40109188322
1150.9650060000001,86155.99492186205
1139.973115,88218.09415082453
1129.194406,90366.32476009043
1118.623093,92673.59514192073
1108.253594,94925.47348612924
1098.0805269999998,97258.76532347627
1088.098695,99823.45445322664
1078.303081,102412.40818724212
1068.688841,105295.65427756342
1059.251295,108518.66220093334
1049.9859199999999,112300.56581603148
1040.8883449999998,116626.25501575867
1031.9543429999999,121643.9602005869
1023.1798259999999,127463.72739775307
1014.5608390000001,134214.93867196742
1006.0935529999999,141782.56449844345
997.774265,150221.98074624914
989.5993858999999,159162.65058914287
981.5654412999999,168768.01381165153
973.6690651,178342.01872239262
965.9069952,188113.18150765388
958.2760697000001,197456.63537204816
950.7732231000001,206684.90237172297
943.3954827,215261.71153733172
936.1399648,223195.20675440133
929.0038716,230280.49876126906
921.9844879000001,236663.5684715515
915.0791782,242499.0039428272
908.2853836000002,248061.426773621
901.6006193,253325.1840177507
895.0224714,258730.46514273185
888.548595,264663.20852703264
882.1767113,271214.00111592066
875.9046055,279358.01631677174
869.7301242999998,289244.73446313443
863.6511742999999,300000.34062951524
857.6657193,314039.0851888332
851.7717787,330952.39178457786
845.9674256000001,351878.0941485048
840.2507849,375937.2298600561
834.6200316000001,405664.92078034
829.0733892000001,440000.41646392
823.6091279,480110.95356506604
818.2255633999999,525084.2078469804
812.9210552000001,573918.0142090956
807.694005,628378.9737936603
802.5428559,681949.836519249
797.4660904,738275.4139818518
792.4622299,797250.4442018578
787.5298327,859038.5832718159
782.6674933999999,926201.7501540341
777.8738417999999,1004315.4979737478
773.1475413,1100044.052846633
768.4872882999999,1218889.350394188
763.8918112000001,1369118.901443201
759.3598692,1554098.311833848
754.8902515999999,1784063.502276434
750.4817767999999,2051963.699264851
746.1332914,2352505.2201040774
741.8436694000001,2683313.226168924
737.6118116,3029942.9998373026
733.4366444,3374284.1342260777
729.3171195,3714320.1101151817
725.2522127999999,4034189.232724931
721.2409241,4332586.816417125
717.282276,4607228.762968987
713.3753136,4850833.466608134
709.5191037000001,5063566.245104818
705.7127343,5253838.46928584
701.9553139,5419926.962905874
698.2459709,5576249.035204213
694.5838534,5704326.836941217
690.9681281000001,5807213.811932444
687.3979803,5887325.2571141375
683.8726131,5949100.095426085
680.3912472999999,5994423.630900194
676.9531202000001,6020889.668698655
673.557486,6038494.989463159
670.2036149,6044266.565669922
666.8907926,6041384.206492025
663.6183202999999,6044603.980246997
660.3855139,6040433.797264517
657.1917038,6040656.770274675
654.0362346,6040858.828546214
650.9184646000001,6040092.37086464
647.8377654,6042105.236357375
644.7935217999999,6040249.041446187
641.7851312999999,6041738.424668413
638.8120038,6040901.420634269
635.8735614,6040932.469554586
632.9692378999999,6040391.823319647
630.0984786,6039992.333183472
627.2607402000001,6041972.301091633
624.4554901,6042733.692150039
621.6822068,6041568.247097629
618.940379,6042346.202296687
616.2295054,6041186.395071397
613.549095,6041360.533122785
610.8986664,6041373.299422376
608.2777476,6041297.204919115
605.6858758999999,6041155.290356914
603.1225977000001,6041147.5231976975
600.5874682,6041649.171633963
598.0800512,6041659.2259428175
595.5999188999999,6041566.771734844
593.1466518,6041931.196250307
590.7198384999999,6041363.686624492
588.3190752,6041283.608714424
585.943966,6041355.977512482
583.5941226,6041534.830421226
581.2691637,6041677.44063603
578.9687155,6041080.947781772
576.692411,6041023.792914095
574.4398902,6041453.0769924475
572.2107997,6041562.728655476
570.0047927,6041510.951588177
567.8215287,6041478.506976909
565.6606737000001,6041109.87671768
563.5218996,6041040.638344943
561.4048845,6041213.358800565
559.3093121,6041983.265862201
557.2348721,6041258.260615463
555.1812597,6041877.067639862
553.1481756000001,6042025.322337864
551.1353259,6041159.841643373
549.1424218999999,6040857.383907074
547.1691801,6041465.836226633
545.2153222000001,6041278.139809772
543.2805745000001,6041165.79135607
541.3646685,6041087.379145527
539.46734,6041599.211501792
537.5883299,6041498.828792301
535.7273833,6041565.711540669
533.8842498,6041285.056022739
532.0586836,6041883.411720451
530.2504428000001,6041614.058019252
528.45929,6041254.171442833
526.6849915,6041338.702300305
524.927318,6041522.4837772325
523.186044,6041778.549882358
521.4609475999999,6041577.786306918
519.7518110000001,6041747.371356565
518.0584200000001,6041196.422769002
516.3805639,6041566.10034629
514.7180356,6041476.5942478785
513.0706316000001,6041072.432637308
511.43815149999995,6041389.165936959
509.82039860000003,6041586.344186257
508.2171791999999,6041398.601953631
506.628303,6041459.574911418
505.05358269999994,6041750.14272426
503.4928341,6041559.6617941465
501.9458762,6041471.974331963
500.41253059999997,6041562.07055171
498.8926222,6041226.372203964
497.3859785,6041397.8068224285
495.89242989999997,6041374.8476394685
494.4118094,6041071.653682202
492.943953,6041248.038068515
491.488699,6041332.367037637
490.04588839999997,6041412.0976178935
488.6153648,6041851.590654674
487.19697429999997,6041885.738772833
485.7905654,6041409.8586302325
484.39598889999996,6041252.457125562
483.01309800000007,6041178.599437185
481.64174840000004,6041622.6308568
480.28179789999996,6041619.19208457
478.93310639999993,6041632.275015801
477.59553619999997,6041994.945094112
476.2689517,6041076.64232452
474.9532192,6041576.72041732
473.6482074,6041246.784481855
472.35378679999997,6041393.478745602
471.06982989999995,6041253.5830307165
469.79621110000005,6041400.592826081
468.53280700000005,6041280.388785187
467.2794956999999,6041119.995013935
466.0361575,6041862.192125636
464.80267410000005,6040696.306684655
463.5789295,6036990.474675612
462.364809,6026978.779898972
461.1601998,6009391.041295411
459.9649909,5981058.551561005
458.7790727,5940049.900755907
457.6023374,5884610.691936315
456.4346788,5813122.942223029
455.2759921,5723978.439592117
454.12617439999997,5621817.374773165
452.9851239,5507787.208167643
451.85274060000006,5385635.757268269
450.7289258,5258102.813281117
449.6135822,5125621.088954575
448.5066141,4992153.267361241
447.407927,4859531.490950599
446.317428,4729142.923209712
445.23502520000005,4603022.586474399
444.1606283,4479931.726110359
443.0941482,4363178.4524878785
442.03549699999996,4253240.05164904
440.9845882,4151556.2770623458
439.9413364,4059391.118370105
438.9056575,3977348.007241454
437.87746860000004,3904877.126820684
436.85668780000003,3840780.8314865986
435.8432345,3784268.711418501
434.83702930000004,3733002.092105129
433.83799369999997,3684927.3246409087
432.84605039999997,3638242.766116755
431.8611232,3590904.2230455456
430.8831369,3542183.065573732
429.9120175,3491010.995481942
428.94769169999995,3438023.0699813133
427.9900874,3383544.6908242307
427.03913370000004,3327530.025136218
426.0947602,3271925.251342275
425.1568978,3216986.332220704
424.22547829999996,3163472.462237838
423.3004343,3112570.8922686707
422.3816994,3063896.151371045
421.4692081,3017612.299627837
420.56289569999996,2973306.9383867783
419.66269850000003,2929874.4384237165
418.7685535,2886172.8161224267
417.8803987,2841057.630792705
416.9981727,2793740.813098669
416.12181519999996,2742279.0919842417
415.25126639999996,2685964.246231898
414.38646760000006,2624629.2555858223
413.5273605,2557575.1718156002
412.673888,2485064.8026412213
411.8259934,2407822.657252052
410.9836208,2326293.4688433628
410.14671519999996,2241508.413277532
409.3152221,2154246.0150166373
408.48908789999996,2064953.493205396
407.66825960000006,1974135.7367090732
406.8526847,1881743.230554055
406.0423117,1788076.1936765262
405.2370896,1692284.173196667
404.43696800000004,1594562.2086927404
403.64189730000004,1494716.2185115088
402.8518283,1392824.7608181306
402.0667126,1289164.0960248457
401.28650239999996,1184508.366941943
400.5111505,1080360.6155572985
399.7406101,977171.497453748
398.9748353,876735.5377099565
398.2137806,780672.2265162374
397.457401,690023.6520154051
396.7056521,606209.0443685893
395.9584903,529752.9077568336
395.2158722,461340.53621238534
394.4777551,400927.46537571866
393.7440968,349155.57536420197
393.0148555,305378.57129965787
392.2899901,268853.3244886488
391.56946,238948.33446958175
390.853225,214537.2868164363
390.1412452,194930.21705645672
389.43348169999996,179166.70427951816
388.7298955,166562.26119885893
388.03044839999995,156034.38323109134
387.3351027,147164.9774116121
386.6438209,139587.52252049628
385.95656610000003,132884.79564501555
385.2733019,126917.90624292867
384.5939922,121534.04152551727
383.9186014,116565.19103049555
383.2470943,112002.9759192076
382.5794362,107796.59158626967
381.9155926,103846.56125323492
381.2555296,100109.61647963896
380.59921360000004,96538.00079523693
379.9466115,93117.90602616216
379.29769039999996,89813.08291188488
378.652418,86590.24866893419
378.0107622,83477.85480590769
377.37269130000004,80460.54479735375
376.73817410000004,77503.70646757197
376.1071796,74625.03730064683
375.47967719999997,71828.75989330585
374.8556368,69077.03126127753
374.2350283,66380.12091610229
373.6178223,63743.45476035582
373.0039896,61109.5174019164
372.3935012,58514.12784297606
371.78632860000005,55942.835938483084
371.1824436,53414.50589636555
370.5818182,50944.971760352804
369.98442489999996,48543.014810028566
369.39023629999997,46187.93377913688
368.7992255,43906.34534513439
368.2113658,41729.74794423666
367.6266307,39661.25699396329
367.0449943,37668.80441553234
366.4664305,35786.757979287504
365.89091410000003,34006.286571291734
365.3184196,32345.078563748288
364.7489221,30771.32431647813
364.18239689999996,29293.048185335712
363.61881960000005,27874.49657919225
363.058166,26551.715211881867
362.50041219999997,25291.66530407687
361.94553460000003,24103.05767101472
361.3935098,22957.428052750995
360.8443147,21853.024244479417
360.29792630000003,20794.256816682668
359.754322,19783.05207879599
359.2134795,18827.18455308353
358.6753765,17903.82427492452
358.1399912,17011.370394449976
357.6073018,16160.128398210563
357.077287,15347.104796960615
356.5499253,14564.31011269146
356.025196,13815.538921156436
355.50307799999996,13087.234698376797
354.983551,12390.374893629854
354.4665945,11715.474136620049
353.95218839999995,11054.880354558747
353.4403127,10406.1377809127
352.9309478,9781.376381390577
352.42407410000004,9178.126565993218
351.9196722,8585.956171857913
351.4177232,8003.335223447962
350.91820789999997,7440.313191012348
350.4211078,6888.633922543659
349.9264043,6367.898494087377
349.434079,5851.532654794803
348.9441137,5355.087613139195
348.45649060000005,4875.516208908577
347.97119169999996,4419.714242864753
347.48819960000003,3983.808189586425
347.0074967,3574.6094644997424
346.5290657,3176.403030294855
346.0528897,2804.7554114084
345.5789517,2454.591132619073
345.1072349,2130.953965225112
344.6377228,1810.7172272068512
344.17039889999995,1519.658622588641
343.70524710000007,1243.1163683243162
343.24225110000003,996.4493710734828
342.7813952,767.5418043833663
342.32266339999995,574.4405206135284
341.8660403,404.5198871504238
341.4115102,277.978647837781
340.959058,174.21312625822543
340.5086685,106.03596077689924
340.06032660000005,50.16679365110366
339.6140175,22.155384955558098
339.1697264,8.215004959694829
338.7274388,3.508893711773069
338.28714019999995,-0.2723577383339681
337.8488164,2.324341730463904
337.41245310000005,1.0177005551729588
336.9780363,-0.09114629920237
336.5455522,-1.058632817575187
336.114987,0.7996169543476874
335.686327,-0.7667327141301679
335.2595588,-0.7160341862010481
334.834669,-0.0833870225615924
334.4116443,2.0907212295093185
333.9904716,-1.46316121193982
333.57113799999996,-1.4402541905848971
333.1536305,-5.937930466554193
332.73793639999997,-0.4422839788557738
332.32404310000004,0.2393975633321222
331.91193799999996,0.5514314092631363
331.5016088,-2.2475063624313742
331.0930432,-1.2138786135628468
330.6862289,-3.429087129590944
330.281154,-0.7499667919046673
329.8778065,-0.6197995457337863
329.47617460000004,-0.5229636243062417
329.07624649999997,3.5641966891655024
328.6780106,-5.29998029328388
328.2814555,-3.215673122945973
327.88656960000003,3.758016676846149
327.4933418,4.129377519728881
327.1017607,2.4156580862158146
326.7118154,2.610088579686023
326.32349480000005,-0.531881896980457
325.93678789999996,0.31518270994784875
325.5516841,-3.8707621065035935
325.16817260000005,-0.3761678676163944
324.7862428,-1.0357166143026229
324.40588419999995,2.7967895615022647
324.0270864,-1.4461897653458928
323.649839,-2.455124174236706
323.2741319,-0.9149867149948075
322.8999548,0.5613103589971044
322.5272977,1.7953620291812875
322.1561508,3.5612847013149103
321.786504,-2.1357035441691323
321.4183476,0.6739459999854209
321.0516719,-4.46243639506513
320.6864673,0.32855699779091085
320.3227243,2.1260249036111136
319.96043330000003,-0.3001401971971209
319.5995851,-1.612669759540336
319.2401704,0.6149080944316584
318.8821799,5.545763862176071
318.5256045,0.3862645470148881
318.1704352,-0.9462412488190858
317.8166631,-2.2265274656616807
317.4642791,-0.4333729917832589
317.1132746,1.9712087004292764
316.76364069999994,-0.8980244215686123
316.4153688,1.4928693452192991
316.06845039999996,1.0046030117388831
315.72287689999996,-1.0688999771497654
315.37863980000003,2.399580319384204
315.0357308,-1.886878741166752
314.6941415,0.7472038488756241
314.3538639,1.2619892996066224
314.0148896,-2.292785440573048
313.6772106,3.6049249953852067
313.3408189,-6.612165570981502
313.00570639999995,-0.002757341602631667
312.67186549999997,-0.2959932625546324
312.33928810000003,1.2459820610969048
312.0079665,0.04511118476956388
311.6778931,3.6791706539302336
311.34906010000003,0.5026773754722235
311.0214601,-0.85201162807221
310.6950856,-0.8283496497536071
310.369929,1.7519279889689758
310.04598300000004,-1.429028508043907
309.7232403,-1.032982062232978
309.4016935,-2.304639463029168
309.0813356,0.8282632902973227
308.7621594,1.4567049474415763
308.4441577,3.088778223008308
308.1273236,-4.502239519255084
307.8116501,-0.061448598342621785
307.49713019999996,-4.217211426704422
307.18375710000004,-0.6770613195807195
306.871524,1.6230219472464842
306.5604242,1.0101337688330079
306.2504509,2.065316762260029
