wave,flux
1817.164934,5.834392201071929
1790.1022050000001,-8.922508799970416
1763.812741,2.838080067985322
1738.2646949999998,17.964986290295702
1713.427949,55.394606290728646
1689.273995,273.45824244752794
1665.7758310000002,780.2978560627112
1642.907862,1660.547153235274
1620.64581,2897.682243307334
1598.9666300000001,4567.79252389286
1577.8484310000001,6608.905579938827
1557.270407,9081.307080787281
1537.212767,12018.311153071987
1517.65668,15152.891128201896
1498.5842089999999,18284.722952674103
1479.978265,21360.10837798508
1461.822555,24374.578060696367
1444.101535,27356.35732271021
1426.800368,30234.595128314082
1409.904887,33041.988123778734
1393.401553,35688.00232903603
1377.2774220000001,38345.21737845583
1361.520115,41058.870380901695
1346.117782,43897.64223314986
1331.059081,46886.59415048186
1316.3331449999998,49898.016682581736
1301.92956,52981.392039139144
1287.838342,56160.666936785936
1274.049912,59412.66562066892
1260.5550779999999,62556.406640009984
1247.345017,65843.12020280695
1234.4112519999999,69166.67987038869
1221.74564,72489.13775366814
1209.340352,75967.85986346685
1197.187859,79429.98315314602
1185.28092,82826.58926010267
1173.612564,86342.06474946727
1162.1760800000002,89858.2349570059
1150.9650060000001,93360.53560055872
1139.973115,96884.1659551865
1129.194406,100459.46355290557
1118.623093,104000.91903450472
1108.253594,107682.07097848076
1098.0805269999998,111210.23424026
1088.098695,115033.96085030449
1078.303081,118926.94576498134
1068.688841,123050.48876972294
1059.251295,127257.37884836894
1049.9859199999999,131590.7083148569
1040.8883449999998,136381.44884832142
1031.9543429999999,141694.6757036899
1023.1798259999999,147321.3416417778
1014.5608390000001,153456.9341870124
1006.0935529999999,159914.41648262547
997.774265,166877.32411557878
989.5993858999999,174235.1531490791
981.5654412999999,182034.45592050225
973.6690651,189761.55827376718
965.9069952,197698.3629974605
958.2760697000001,205365.9556933821
950.7732231000001,212880.19496064997
943.3954827,220440.2216336294
936.1399648,227981.3888934509
929.0038716,235073.58185367944
921.9844879000001,242047.50200703452
915.0791782,248959.92200102532
908.2853836000002,255818.4966291813
901.6006193,263089.56165114854
895.0224714,270683.9638088809
888.548595,278706.9096915232
882.1767113,287137.70005859213
875.9046055,297034.3284454919
869.7301242999998,307496.68737837137
863.6511742999999,319580.2556678005
857.6657193,332777.94247854233
851.7717787,347634.89794564433
845.9674256000001,365289.75850597984
840.2507849,385212.2887334678
834.6200316000001,407614.14648956654
829.0733892000001,432992.4272921397
823.6091279,462380.8039544257
818.2255633999999,494066.44169909577
812.9210552000001,529091.417566979
807.694005,566350.0716134297
802.5428559,605764.5280179166
797.4660904,646617.6262563551
792.4622299,690426.2912833767
787.5298327,736929.6261935338
782.6674933999999,785299.1927947765
777.8738417999999,845351.5096919844
773.1475413,914644.4383647643
768.4872882999999,1002428.0412342434
763.8918112000001,1109338.4030051047
759.3598692,1240454.8051525557
754.8902515999999,1397705.7875510838
750.4817767999999,1581731.614936936
746.1332914,1790604.7431044185
741.8436694000001,2018319.4281108768
737.6118116,2263602.486668029
733.4366444,2516176.540546954
729.3171195,2773585.9315625974
725.2522127999999,3025164.9701466863
721.2409241,3280971.965884987
717.282276,3542692.964719821
713.3753136,3806870.3050869713
709.5191037000001,4075497.8016466405
705.7127343,4341737.063332473
701.9553139,4613191.261925924
698.2459709,4880718.091369523
694.5838534,5140965.2252346575
690.9681281000001,5378686.82587685
687.3979803,5574479.154511534
683.8726131,5731251.399304496
680.3912472999999,5852714.12307122
676.9531202000001,5941485.132859839
673.557486,5999195.087926915
670.2036149,6030092.780182082
666.8907926,6040711.422953956
663.6183202999999,6042234.504244216
660.3855139,6040187.553512618
657.1917038,6040581.608100368
654.0362346,6042438.682114958
650.9184646000001,6041312.896749955
647.8377654,6042078.71927157
644.7935217999999,6040660.043283692
641.7851312999999,6041220.250497437
638.8120038,6043443.977886444
635.8735614,6042288.834598354
632.9692378999999,6040482.6366729075
630.0984786,6041716.118585818
627.2607402000001,6041492.353470412
624.4554901,6041571.057519887
621.6822068,6040746.830617988
618.940379,6041012.872792634
616.2295054,6041524.230157877
613.549095,6041234.345377748
610.8986664,6041105.069149539
608.2777476,6041301.316291142
605.6858758999999,6041396.374457982
603.1225977000001,6041313.817532633
600.5874682,6041132.937476343
598.0800512,6041768.171676693
595.5999188999999,6041160.514264007
593.1466518,6041235.106933418
590.7198384999999,6041070.072375404
588.3190752,6041491.35481213
585.943966,6041659.832493915
583.5941226,6041514.025922538
581.2691637,6041439.738766723
578.9687155,6041259.144501364
576.692411,6041656.395859548
574.4398902,6041076.300487758
572.2107997,6041327.707963405
570.0047927,6040860.693754078
567.8215287,6041554.327757978
565.6606737000001,6041141.007903053
563.5218996,6041411.745909164
561.4048845,6041224.473554217
559.3093121,6041566.001783348
557.2348721,6040965.135428278
555.1812597,6041402.201221183
553.1481756000001,6041348.103838151
551.1353259,6041345.864389412
549.1424218999999,6041599.058387719
547.1691801,6041371.537010234
545.2153222000001,6040792.018958382
543.2805745000001,6041813.9459012225
541.3646685,6041153.18990965
539.46734,6041868.027874995
537.5883299,6041516.492373138
535.7273833,6041468.538788384
533.8842498,6040814.309150033
532.0586836,6041663.93628396
530.2504428000001,6041343.1391025735
528.45929,6041256.901577241
526.6849915,6041821.662377101
524.927318,6041416.111303489
523.186044,6041967.121390304
521.4609475999999,6041099.061535353
519.7518110000001,6041548.333468412
518.0584200000001,6041750.13505126
516.3805639,6041545.34068395
514.7180356,6041375.0460028425
513.0706316000001,6041677.099300189
511.43815149999995,6041010.015297117
509.82039860000003,6041911.381017177
508.2171791999999,6041528.880508713
506.628303,6041297.800959658
505.05358269999994,6041506.400625674
503.4928341,6041020.288095545
501.9458762,6041392.417159981
500.41253059999997,6041250.519223963
498.8926222,6041485.350144368
497.3859785,6041339.938958844
495.89242989999997,6042115.728025321
494.4118094,6041095.957818089
492.943953,6041056.756689712
491.488699,6041300.194385404
490.04588839999997,6041260.238621852
488.6153648,6041070.04582753
487.19697429999997,6041006.925551983
485.7905654,6041493.885747816
484.39598889999996,6041723.273283474
483.01309800000007,6040839.455447324
481.64174840000004,6041676.204126357
480.28179789999996,6041390.170239741
478.93310639999993,6041452.817532442
477.59553619999997,6041808.270184534
476.2689517,6041416.536352702
474.9532192,6041512.859417731
473.6482074,6041395.11211784
472.35378679999997,6041287.00945754
471.06982989999995,6040982.797248639
469.79621110000005,6041428.420974084
468.53280700000005,6041668.219197876
467.2794956999999,6041273.9113908475
466.0361575,6041395.5073712785
464.80267410000005,6041031.839087993
463.5789295,6041418.583721862
462.364809,6041355.047984305
461.1601998,6041506.716916638
459.9649909,6041534.00161671
458.7790727,6041493.793475746
457.6023374,6040945.171848457
456.4346788,6040944.147772219
455.2759921,6041852.493019387
454.12617439999997,6041356.022248825
452.9851239,6041344.509837922
451.85274060000006,6041404.339440502
450.7289258,6041722.725594892
449.6135822,6041287.782743119
448.5066141,6041197.89692463
447.407927,6041349.101658259
446.317428,6041262.840579296
445.23502520000005,6041210.728548606
444.1606283,6041270.853684906
443.0941482,6041176.2447590325
442.03549699999996,6040939.832649443
440.9845882,6041248.311687022
439.9413364,6041371.665754532
438.9056575,6041727.833151427
437.87746860000004,6041662.922278565
436.85668780000003,6040976.9226512285
435.8432345,6041219.8726721015
434.83702930000004,6041596.016417006
433.83799369999997,6041678.513299753
432.84605039999997,6041284.322321258
431.8611232,6041435.4330339935
430.8831369,6041396.228937796
429.9120175,6041906.178397417
428.94769169999995,6041718.282435773
427.9900874,6041469.521160088
427.03913370000004,6041296.806989486
426.0947602,6041307.653036965
425.1568978,6041445.29271465
424.22547829999996,6041381.6569932075
423.3004343,6041203.803491087
422.3816994,6041442.083372085
421.4692081,6041528.768690778
420.56289569999996,6041337.12389281
419.66269850000003,6041397.764064898
418.7685535,6041018.060517455
417.8803987,6041762.487667442
416.9981727,6040603.495572638
416.12181519999996,6037995.029631624
415.25126639999996,6032109.933807562
414.38646760000006,6021655.03538964
413.5273605,6004048.174493134
412.673888,5979680.0933216885
411.8259934,5945173.888568742
410.9836208,5899932.017686589
410.14671519999996,5842114.961655179
409.3152221,5773320.298315493
408.48908789999996,5692641.834456549
407.66825960000006,5602817.577105897
406.8526847,5503896.328449685
406.0423117,5398289.7359781265
405.2370896,5288130.281842321
404.43696800000004,5175563.293926867
403.64189730000004,5062479.709736012
402.8518283,4950181.153311665
402.0667126,4839850.099348148
401.28650239999996,4730514.450260602
400.5111505,4621956.46026604
399.7406101,4512254.844148621
398.9748353,4399304.824496889
398.2137806,4280625.731669333
397.457401,4154498.9788843608
396.7056521,4019310.195583528
395.9584903,3874656.5462241317
395.2158722,3720138.5181568917
394.4777551,3557463.102115767
393.7440968,3388459.914527756
393.0148555,3215620.05668714
392.2899901,3041196.923380962
391.56946,2867621.633235958
390.853225,2696769.44827939
390.1412452,2529772.0485133245
389.43348169999996,2367788.8764624246
388.7298955,2210638.4542933274
388.03044839999995,2059189.27663954
387.3351027,1912037.3021460231
386.6438209,1769428.1620773484
385.95656610000003,1631626.8449008847
385.2733019,1498525.1684533127
384.5939922,1369997.9186121465
383.9186014,1246842.8483042838
383.2470943,1129294.718493833
382.5794362,1018517.9321341828
381.9155926,914647.6643161981
381.2555296,818770.1323005289
380.59921360000004,731252.0547829781
379.9466115,652014.6541789015
379.29769039999996,581676.3724851847
378.652418,519690.6032122854
378.0107622,465967.79628282046
377.37269130000004,419861.1711153143
376.73817410000004,380728.77723246376
376.1071796,347802.9505199911
375.47967719999997,320155.16991960665
374.8556368,297127.8136956852
374.2350283,277812.5836215313
373.6178223,261492.00705237934
373.0039896,247393.32593638072
372.3935012,235315.7503464361
371.78632860000005,224534.07572140836
371.1824436,214883.59268918296
370.5818182,206037.52987959023
369.98442489999996,197860.79376229434
369.39023629999997,190199.73067912282
368.7992255,183016.18634521388
368.2113658,176184.43615685467
367.6266307,169642.58050310393
367.0449943,163278.382105769
366.4664305,157159.55861617404
365.89091410000003,151262.01525327694
365.3184196,145545.26884609144
364.7489221,139961.67959241575
364.18239689999996,134489.98214892115
363.61881960000005,129157.98134350785
363.058166,123933.75649801375
362.50041219999997,118837.62496073735
361.94553460000003,113865.60094010831
361.3935098,109071.13373131707
360.8443147,104361.88549780275
360.29792630000003,99801.03995462935
359.754322,95352.03843365627
359.2134795,91010.71627960546
358.6753765,86850.92040065372
358.1399912,82818.25629779621
357.6073018,78879.99166138042
357.077287,75040.3968926646
356.5499253,71325.60129985299
356.025196,67756.51413056579
355.50307799999996,64348.421376655926
354.983551,61109.2022103921
354.4665945,58009.16537704994
353.95218839999995,55084.797209819524
353.4403127,52284.11002467974
352.9309478,49680.575722806105
352.42407410000004,47231.84227073825
351.9196722,44939.2819715091
351.4177232,42780.18269178475
350.91820789999997,40731.72291524699
350.4211078,38799.67813617457
349.9264043,36926.55436519302
349.434079,35146.53674083109
348.9441137,33445.71039364412
348.45649060000005,31781.156770540176
347.97119169999996,30157.70458270983
347.48819960000003,28556.05847584273
347.0074967,26986.51262996995
346.5290657,25435.42007850445
346.0528897,23945.045035827985
345.5789517,22523.360376942797
345.1072349,21163.720501522228
344.6377228,19865.89057433178
344.17039889999995,18611.61416925837
343.70524710000007,17440.084209923967
343.24225110000003,16355.639000659043
342.7813952,15320.591914314567
342.32266339999995,14314.159259300051
341.8660403,13314.833344288689
341.4115102,12319.320244907123
340.959058,11342.21798715975
340.5086685,10401.892279513853
340.06032660000005,9477.909761874917
339.6140175,8580.611104822236
339.1697264,7713.998502672775
338.7274388,6920.6981924038155
338.28714019999995,6204.0526196796945
337.8488164,5547.177666517744
337.41245310000005,4941.34887138736
336.9780363,4390.63608559538
336.5455522,3894.448550883265
336.114987,3442.615364001899
335.686327,3029.190122594115
335.2595588,2641.880792015796
334.834669,2280.967086770239
334.4116443,1930.718520061324
333.9904716,1615.1868734028824
333.57113799999996,1329.295515316123
333.1536305,1083.5254620175813
332.73793639999997,857.7643321718645
332.32404310000004,656.4397329370614
331.91193799999996,488.64898542077975
331.5016088,343.3962036522413
331.0930432,243.05407326528785
330.6862289,155.12366796190992
330.281154,95.31494121782278
329.8778065,52.52311397719489
329.47617460000004,23.21245542654316
329.07624649999997,8.294272389981138
328.6780106,5.4009287168361615
328.2814555,-0.7627666966072872
327.88656960000003,0.3705508144412079
327.4933418,-5.199059531414099
327.1017607,2.1275249004655064
326.7118154,1.9009967400879395
326.32349480000005,3.9824904040179057
325.93678789999996,-0.5002664119824084
325.5516841,0.9512764489344478
325.16817260000005,-1.845044136558556
324.7862428,-1.7797094790032797
324.40588419999995,1.2010662382125092
324.0270864,-2.257443161606904
323.649839,3.26394415733814
323.2741319,4.042141341321401
322.8999548,-0.8678469751230702
322.5272977,-4.826591986611579
322.1561508,1.873513161793958
321.786504,-1.3609072604137429
321.4183476,1.7367142710312231
321.0516719,-2.4954657842870462
320.6864673,-0.7008988779434455
320.3227243,2.620747648172104
319.96043330000003,1.6581274966797055
319.5995851,0.5108516861615832
319.2401704,-0.5710712616279482
318.8821799,-1.8865507623791755
318.5256045,-0.9325379316677348
318.1704352,2.519614727910834
317.8166631,2.6317192044689093
317.4642791,2.09898747391758
317.1132746,0.9262652391169468
316.76364069999994,0.20233383606511648
316.4153688,-0.7290965307448277
316.06845039999996,1.5814632088805125
315.72287689999996,-0.5419483391300429
315.37863980000003,0.9629828514093144
315.0357308,-1.6364857098201158
314.6941415,-1.7240385895403685
314.3538639,2.239712057251909
314.0148896,0.6256747850079337
313.6772106,-2.273141877878534
313.3408189,-0.5192755972038029
313.00570639999995,1.3878449459076398
312.67186549999997,1.3611778266768226
312.33928810000003,0.8508336243318559
312.0079665,0.8119760577635383
311.6778931,2.662610327608754
311.34906010000003,1.74329103662022
311.0214601,0.2867169651227425
310.6950856,-0.8250938552819285
310.369929,2.588004051464901
310.04598300000004,-0.6510728457587825
309.7232403,2.2370640746801334
309.4016935,0.6588270863984776
309.0813356,3.0336229924289397
308.7621594,2.291267837992822
308.4441577,-0.3660892712462411
308.1273236,0.7504943902625347
307.8116501,4.41188789817092
307.49713019999996,1.4460864657890709
307.18375710000004,-2.8958908254513043
306.871524,2.082908322411185
306.5604242,-0.18231815126599696
306.2504509,0.7716057717652883
