wave,flux
1817.164934,5.931725579079468
1790.1022050000001,11.746773902479566
1763.812741,21.811812136025864
1738.2646949999998,41.48382515071956
1713.427949,142.62936264941303
1689.273995,577.6739767713634
1665.7758310000002,1564.4572518804232
1642.907862,3115.8126660292305
1620.64581,5340.85176584245
1598.9666300000001,8353.180050294728
1577.8484310000001,12103.442134018944
1557.270407,16770.582261728126
1537.212767,22248.239875255516
1517.65668,28114.66534521564
1498.5842089999999,34256.911632459705
1479.978265,40295.892282769135
1461.822555,46366.48415173642
1444.101535,52403.764934810584
1426.800368,58162.346683233714
1409.904887,63776.68397154801
1393.401553,69051.76176908617
1377.2774220000001,74354.37143960109
1361.520115,79473.95919520389
1346.117782,84604.76031962334
1331.059081,89661.14710178669
1316.3331449999998,94777.90206520447
1301.92956,99848.29802696963
1287.838342,105022.85107828482
1274.049912,109993.19734430137
1260.5550779999999,115067.92248854726
1247.345017,119945.3359850322
1234.4112519999999,124983.46004392464
1221.74564,129971.75099802765
1209.340352,134874.6396264056
1197.187859,139879.39405594507
1185.28092,144785.40580249426
1173.612564,149683.75872106818
1162.1760800000002,154517.6404533384
1150.9650060000001,159542.82814390052
1139.973115,164566.08217956574
1129.194406,169298.2615352154
1118.623093,174237.95929238285
1108.253594,178927.5933651766
1098.0805269999998,183779.65739105735
1088.098695,188660.525820625
1078.303081,193448.69273712038
1068.688841,198195.06462181575
1059.251295,203387.1875575195
1049.9859199999999,208731.45768389737
1040.8883449999998,214862.69178133726
1031.9543429999999,221529.48178925397
1023.1798259999999,228796.95513463786
1014.5608390000001,237156.387284675
1006.0935529999999,246349.39265249926
997.774265,256404.6079889036
989.5993858999999,267088.4918652177
981.5654412999999,278657.0313006478
973.6690651,290523.9617950617
965.9069952,302621.3822387019
958.2760697000001,314839.9221401462
950.7732231000001,326915.7941224972
943.3954827,338915.1804412359
936.1399648,350264.9606387952
929.0038716,361307.761390292
921.9844879000001,371681.87596790155
915.0791782,381676.7659770447
908.2853836000002,391649.6721377284
901.6006193,401325.1405412071
895.0224714,410908.65773299546
888.548595,421607.7786416664
882.1767113,432520.91631883563
875.9046055,445363.5228513082
869.7301242999998,460062.3248522636
863.6511742999999,476192.0295166304
857.6657193,495757.61283607007
851.7717787,518799.46834006393
845.9674256000001,544963.2869151316
840.2507849,575841.3486005096
834.6200316000001,612832.0460784542
829.0733892000001,655285.6855564023
823.6091279,703070.6493189618
818.2255633999999,756994.6028366371
812.9210552000001,816609.899779774
807.694005,882144.7067450626
802.5428559,952674.5564502544
797.4660904,1025867.1882219322
792.4622299,1105709.7667073943
787.5298327,1189995.8732045973
782.6674933999999,1282901.0092504874
777.8738417999999,1390840.3439084662
773.1475413,1517923.3633179308
768.4872882999999,1673633.3199440169
763.8918112000001,1865469.8864672119
759.3598692,2100089.97182129
754.8902515999999,2380581.8240202605
750.4817767999999,2709357.853336363
746.1332914,3076068.2950619273
741.8436694000001,3473383.036706895
737.6118116,3888448.232421372
733.4366444,4293784.728943546
729.3171195,4683820.990435397
725.2522127999999,5035463.431138899
721.2409241,5334097.695197059
717.282276,5573201.002746958
713.3753136,5751927.910161744
709.5191037000001,5878340.546514478
705.7127343,5964145.635367492
701.9553139,6010095.1369640315
698.2459709,6032716.302093242
694.5838534,6040259.25920437
690.9681281000001,6042011.380187643
687.3979803,6041077.26704069
683.8726131,6038696.5304233
680.3912472999999,6042727.257160762
676.9531202000001,6041360.866147055
673.557486,6041815.584048552
670.2036149,6040282.12544491
666.8907926,6040462.622378314
663.6183202999999,6041599.329364987
660.3855139,6042441.49149268
657.1917038,6040310.348874432
654.0362346,6040624.800672216
650.9184646000001,6041738.727831792
647.8377654,6039597.3096584575
644.7935217999999,6041530.0826639375
641.7851312999999,6040864.737086344
638.8120038,6041207.221241869
635.8735614,6041375.434368625
632.9692378999999,6039909.440002092
630.0984786,6042177.673042539
627.2607402000001,6041770.688525105
624.4554901,6040786.144639516
621.6822068,6041747.832117853
618.940379,6040980.026804449
616.2295054,6041129.697504442
613.549095,6041603.084164739
610.8986664,6041290.002330467
608.2777476,6041181.600815752
605.6858758999999,6041226.76781393
603.1225977000001,6041337.14589316
600.5874682,6041168.48249874
598.0800512,6040991.201547292
595.5999188999999,6041568.354827497
593.1466518,6041177.9524609465
590.7198384999999,6041842.23529667
588.3190752,6041751.340881184
585.943966,6041581.639519224
583.5941226,6041303.542782342
581.2691637,6040909.226237333
578.9687155,6041446.140271418
576.692411,6041704.43196482
574.4398902,6041260.358978411
572.2107997,6041088.796092995
570.0047927,6041196.850956261
567.8215287,6040980.857904884
565.6606737000001,6040978.493928922
563.5218996,6041246.240465761
561.4048845,6041172.144785976
559.3093121,6041073.216485661
557.2348721,6041456.042972998
555.1812597,6041663.184234252
553.1481756000001,6041664.502843591
551.1353259,6041257.416850579
549.1424218999999,6041686.468353689
547.1691801,6041771.5847406415
545.2153222000001,6041394.402488737
543.2805745000001,6041639.876355828
541.3646685,6041496.102738247
539.46734,6041617.908972933
537.5883299,6041515.163284946
535.7273833,6041535.323460895
533.8842498,6041047.397093613
532.0586836,6041148.822384215
530.2504428000001,6041267.805131094
528.45929,6041654.4200655585
526.6849915,6041365.195983635
524.927318,6041511.060004897
523.186044,6041407.903007426
521.4609475999999,6041085.939478751
519.7518110000001,6041486.884004053
518.0584200000001,6041246.473578743
516.3805639,6040603.452597692
514.7180356,6041362.298715533
513.0706316000001,6041113.817219722
511.43815149999995,6041482.576302401
509.82039860000003,6041276.578704792
508.2171791999999,6041488.414894627
506.628303,6041448.08375008
505.05358269999994,6041601.356150342
503.4928341,6041378.376284718
501.9458762,6041508.771026893
500.41253059999997,6041224.86073008
498.8926222,6041539.843809145
497.3859785,6041693.90361009
495.89242989999997,6041740.500884713
494.4118094,6041710.358162642
492.943953,6041441.979472275
491.488699,6041355.190949126
490.04588839999997,6041457.515217093
488.6153648,6041111.045602437
487.19697429999997,6041365.166428938
485.7905654,6041448.20310079
484.39598889999996,6041300.146911956
483.01309800000007,6041332.45346577
481.64174840000004,6041408.822544972
480.28179789999996,6041179.54957935
478.93310639999993,6041441.664100642
477.59553619999997,6041158.680598505
476.2689517,6041341.917957143
474.9532192,6041774.65645434
473.6482074,6042092.604930881
472.35378679999997,6041651.380627529
471.06982989999995,6041331.413560665
469.79621110000005,6039855.781167587
468.53280700000005,6032808.298183957
467.2794956999999,6016598.398511028
466.0361575,5987678.412371725
464.80267410000005,5943699.855967483
463.5789295,5880708.652237187
462.364809,5795756.277072116
461.1601998,5688015.117582515
459.9649909,5556446.0798046235
458.7790727,5407182.574610873
457.6023374,5245280.411481387
456.4346788,5074367.342158648
455.2759921,4899696.828379951
454.12617439999997,4723482.8950336715
452.9851239,4549643.3645007815
451.85274060000006,4380848.697757669
450.7289258,4218668.705172633
449.6135822,4061278.9877742636
448.5066141,3909137.802923927
447.407927,3761287.122833885
446.317428,3618094.298623403
445.23502520000005,3479527.3109037387
444.1606283,3346869.8242367427
443.0941482,3220842.7223201063
442.03549699999996,3101844.042176093
440.9845882,2990700.554059812
439.9413364,2886619.6626408636
438.9056575,2789454.227250321
437.87746860000004,2697566.609242863
436.85668780000003,2610448.163578149
435.8432345,2526155.241985428
434.83702930000004,2443053.948351222
433.83799369999997,2360362.61987459
432.84605039999997,2277627.744427137
431.8611232,2193842.7619347516
430.8831369,2110005.549890968
429.9120175,2026742.9685503282
428.94769169999995,1944795.069059932
427.9900874,1865012.4851860416
427.03913370000004,1787997.8083084226
426.0947602,1714368.926352034
425.1568978,1644174.7817848972
424.22547829999996,1577933.7802900798
423.3004343,1514592.382676385
422.3816994,1454191.770412597
421.4692081,1395898.1415227137
420.56289569999996,1339401.9489684815
419.66269850000003,1283890.6530205512
418.7685535,1229374.3780568535
417.8803987,1175648.5906739384
416.9981727,1122669.7427381666
416.12181519999996,1070829.8669668941
415.25126639999996,1019922.0727489784
414.38646760000006,970466.3983023664
413.5273605,922815.408159608
412.673888,877258.2604708091
411.8259934,833737.0034417405
410.9836208,792521.1314729012
410.14671519999996,753606.813629183
409.3152221,716858.786522069
408.48908789999996,682019.1845288358
407.66825960000006,649050.3587629761
406.8526847,617665.4637696162
406.0423117,587775.34988535
405.2370896,559185.2340244818
404.43696800000004,531876.7256713758
403.64189730000004,505887.2687703049
402.8518283,481182.3030231962
402.0667126,458119.8773670711
401.28650239999996,436711.6239830726
400.5111505,417274.2665868919
399.7406101,399660.64946444135
398.9748353,384070.2106143506
398.2137806,370593.64757654717
397.457401,359254.30343247263
396.7056521,349901.99691030674
395.9584903,342319.8407463941
395.2158722,336239.3768816452
394.4777551,331316.64210187003
393.7440968,327540.5359707633
393.0148555,324292.1403580019
392.2899901,320987.7063696876
391.56946,317227.1962302183
390.853225,312510.0050512942
390.1412452,306514.90711962053
389.43348169999996,298907.6985127542
388.7298955,289624.8538436913
388.03044839999995,278531.7458477309
387.3351027,265742.63798973296
386.6438209,251597.62339541852
385.95656610000003,236423.89163003358
385.2733019,220547.03077294055
384.5939922,204360.86467860593
383.9186014,188188.90895844775
383.2470943,172431.43299723446
382.5794362,157191.3001028325
381.9155926,142744.3325419165
381.2555296,129153.7862034802
380.59921360000004,116497.4890768261
379.9466115,104906.28970071404
379.29769039999996,94256.68928679203
378.652418,84591.69429127428
378.0107622,75958.2238259704
377.37269130000004,68262.06012766511
376.73817410000004,61464.84747313204
376.1071796,55504.25822097735
375.47967719999997,50316.28155040866
374.8556368,45780.69908860094
374.2350283,41869.29289354697
373.6178223,38476.017654558214
373.0039896,35511.589395814386
372.3935012,32930.09910844819
371.78632860000005,30638.817894410044
371.1824436,28620.1267633254
370.5818182,26813.04407329449
369.98442489999996,25176.890240635083
369.39023629999997,23702.949644309403
368.7992255,22355.846360820866
368.2113658,21141.1593609132
367.6266307,20019.105210879366
367.0449943,19011.432643116845
366.4664305,18070.813909958582
365.89091410000003,17214.88860433447
365.3184196,16425.25961324032
364.7489221,15686.449260160132
364.18239689999996,14980.518013670691
363.61881960000005,14322.366557487207
363.058166,13666.617307058708
362.50041219999997,13045.484929862463
361.94553460000003,12435.04645056479
361.3935098,11841.6082710867
360.8443147,11256.69231131144
360.29792630000003,10689.476520143307
359.754322,10152.19460934866
359.2134795,9637.872377794301
358.6753765,9145.682607822657
358.1399912,8672.917873036758
357.6073018,8219.476135624287
357.077287,7774.375523845301
356.5499253,7340.834694187632
356.025196,6923.008364912799
355.50307799999996,6519.616625074654
354.983551,6125.7738297472415
354.4665945,5744.90617603908
353.95218839999995,5378.2906118366855
353.4403127,5033.885502426112
352.9309478,4712.24210255046
352.42407410000004,4401.2375260428835
351.9196722,4124.955679630742
351.4177232,3870.2817048748134
350.91820789999997,3638.1198413301113
350.4211078,3419.4920665199684
349.9264043,3218.2093482861696
349.434079,3034.75638173227
348.9441137,2857.663004333388
348.45649060000005,2695.694773661058
347.97119169999996,2552.1290284168954
347.48819960000003,2400.2764622876252
347.0074967,2254.697500190215
346.5290657,2127.2110283731326
346.0528897,1998.5839604371329
345.5789517,1878.583423747973
345.1072349,1774.5145358403518
344.6377228,1675.6596349432173
344.17039889999995,1572.1417473587135
343.70524710000007,1492.561394313948
343.24225110000003,1418.6287439868454
342.7813952,1344.2922027000725
342.32266339999995,1274.6477313891494
341.8660403,1220.8752709369885
341.4115102,1156.1311043028275
340.959058,1106.229216593411
340.5086685,1050.772043034239
340.06032660000005,1009.6971800970165
339.6140175,965.0067637158826
339.1697264,918.6558964231674
338.7274388,876.3762065479091
338.28714019999995,823.8000176645825
337.8488164,773.7970133502868
337.41245310000005,719.8792868029233
336.9780363,658.0118961009872
336.5455522,598.8837212796457
336.114987,537.7894813341294
335.686327,478.8673149639725
335.2595588,413.83693974347193
334.834669,359.34356771288367
334.4116443,306.69003246194853
333.9904716,261.91729842576063
333.57113799999996,220.0182306216809
333.1536305,179.2680258711291
332.73793639999997,144.639131737107
332.32404310000004,115.49939172204171
331.91193799999996,95.97575761302264
331.5016088,74.86620888905328
331.0930432,56.269917205991824
330.6862289,42.938601747479225
330.281154,31.332690848321285
329.8778065,20.81530944621528
329.47617460000004,12.233105520365989
329.07624649999997,8.925027663719797
328.6780106,10.458408240730305
328.2814555,-0.3310393330541648
327.88656960000003,-3.786188334660868
327.4933418,0.4555703881170903
327.1017607,-0.5285246882013902
326.7118154,-1.6561549930919208
326.32349480000005,-0.9625506103413132
325.93678789999996,-3.8446180508111176
325.5516841,1.7694724881055202
325.16817260000005,1.9699738528799555
324.7862428,4.704123285474151
324.40588419999995,3.2870034221521265
324.0270864,-0.4703574067499253
323.649839,0.4136315281670456
323.2741319,-0.4955893704209688
322.8999548,1.1044051084821351
322.5272977,1.5529199444248492
322.1561508,3.723012827078597
321.786504,-1.2113299673084876
321.4183476,-0.366504098428709
321.0516719,-1.9415822472921391
320.6864673,-4.131895690192532
320.3227243,3.5176799246332724
319.96043330000003,0.5904122236808376
319.5995851,1.2379289225991048
319.2401704,-0.8528614163092475
318.8821799,-4.792950136027558
318.5256045,-2.0715777363619345
318.1704352,3.542376523941722
317.8166631,-2.4427456327808748
317.4642791,4.327331555394082
317.1132746,-3.9071859788849483
316.76364069999994,1.9504892056922871
316.4153688,-0.844683522524468
316.06845039999996,-5.093947006122452
315.72287689999996,2.04563955829618
315.37863980000003,-0.8681856944231844
315.0357308,-1.0730379396754093
314.6941415,0.5103883862373002
314.3538639,-2.732800341392139
314.0148896,-4.323924974790332
313.6772106,0.8844721329309063
313.3408189,-0.40156381725512985
313.00570639999995,1.7742019535485989
312.67186549999997,1.0464896945276114
312.33928810000003,2.374696936636288
312.0079665,-0.8371995210568781
311.6778931,-2.534185507071876
311.34906010000003,-3.27731886475852
311.0214601,-0.32434226586077763
310.6950856,1.743539009629394
310.369929,-0.1242395137428278
310.04598300000004,1.9909922472311157
309.7232403,5.635518209284487
309.4016935,1.203117274359723
309.0813356,1.4929275999955107
308.7621594,-0.6511699562778741
308.4441577,-4.490335024320384
308.1273236,0.10359896872463592
307.8116501,-1.031365992094264
307.49713019999996,-0.8542445032148136
307.18375710000004,-0.6021969441559089
306.871524,-2.7754636483359243
306.5604242,1.3325586655833537
306.2504509,-1.907147752652722
