wave,flux
1817.164934,17.80324774680795
1790.1022050000001,-46.971368038567704
1763.812741,-23.59486062694068
1738.2646949999998,-20.112520636766558
1713.427949,6.017641566628972
1689.273995,2456.0199788147142
1665.7758310000002,7825.761726645092
1642.907862,16346.860663764628
1620.64581,27592.064051248388
1598.9666300000001,41884.87794863772
1577.8484310000001,59167.37064702156
1557.270407,79154.71579275865
1537.212767,102036.81076994452
1517.65668,123403.58970466322
1498.5842089999999,142194.8168875362
1479.978265,158517.65706853956
1461.822555,172267.9551846564
1444.101535,183377.79535678253
1426.800368,191888.23725294493
1409.904887,197905.86169795992
1393.401553,201451.4194730929
1377.2774220000001,204539.86381378327
1361.520115,207424.6827515516
1346.117782,210380.61866819745
1331.059081,213257.75563342735
1316.3331449999998,216175.1657061498
1301.92956,219093.5328975873
1287.838342,222030.5767269029
1274.049912,225271.62797228372
1260.5550779999999,228219.5714304819
1247.345017,231374.51774672145
1234.4112519999999,234721.6617370075
1221.74564,238230.9251364433
1209.340352,241463.66834911265
1197.187859,245229.12163811672
1185.28092,248919.27212223085
1173.612564,252418.7642940418
1162.1760800000002,256084.36244889372
1150.9650060000001,259612.55780498858
1139.973115,263293.3040395505
1129.194406,266510.17498975893
1118.623093,270364.190395231
1108.253594,273842.7794035484
1098.0805269999998,277000.3556237977
1088.098695,280821.46980157634
1078.303081,284735.9013566005
1068.688841,289390.9831835586
1059.251295,295104.8610537762
1049.9859199999999,302674.5645303986
1040.8883449999998,313051.14563824685
1031.9543429999999,326169.0963793255
1023.1798259999999,342640.1667951754
1014.5608390000001,363364.2581483945
1006.0935529999999,386718.1203902725
997.774265,412709.7803104101
989.5993858999999,441264.62687085435
981.5654412999999,470284.316683059
973.6690651,499044.8316146903
965.9069952,526344.4705902505
958.2760697000001,551498.7594350068
950.7732231000001,572844.0967964075
943.3954827,590533.4075316873
936.1399648,604696.5994773175
929.0038716,614157.1662147675
921.9844879000001,620127.4100634629
915.0791782,623248.3438564175
908.2853836000002,624788.4501666953
901.6006193,626080.1080609
895.0224714,628152.0797995924
888.548595,634690.7258773559
882.1767113,645198.0085030525
875.9046055,663040.9219725961
869.7301242999998,690450.2811550435
863.6511742999999,726390.6460098628
857.6657193,774740.3148276964
851.7717787,837542.2962074969
845.9674256000001,917837.3722647856
840.2507849,1015772.0045826208
834.6200316000001,1137284.262048415
829.0733892000001,1282347.872284355
823.6091279,1448353.418364836
818.2255633999999,1632333.74057002
812.9210552000001,1832169.0608313456
807.694005,2038445.8328371088
802.5428559,2247081.7939615045
797.4660904,2454194.2038702182
792.4622299,2653842.0192596633
787.5298327,2862342.3827186367
782.6674933999999,3089117.0863631223
777.8738417999999,3332233.572466172
773.1475413,3596322.4639612576
768.4872882999999,3878030.6055449983
763.8918112000001,4177868.539525443
759.3598692,4496973.815779094
754.8902515999999,4821701.211471093
750.4817767999999,5133259.305356838
746.1332914,5393544.7552111065
741.8436694000001,5606020.339515717
737.6118116,5773334.195072521
733.4366444,5897334.73495569
729.3171195,5978180.804996741
725.2522127999999,6026857.153657904
721.2409241,6042269.989574823
717.282276,6040215.799960236
713.3753136,6042264.318058107
709.5191037000001,6044960.3991801785
705.7127343,6042655.38134495
701.9553139,6038929.941001544
698.2459709,6042101.245035603
694.5838534,6040177.235113392
690.9681281000001,6044060.797054052
687.3979803,6042226.097761499
683.8726131,6041539.468645153
680.3912472999999,6040087.363227938
676.9531202000001,6042508.987484332
673.557486,6044193.656657982
670.2036149,6041364.68046739
666.8907926,6041682.130580714
663.6183202999999,6039438.818947
660.3855139,6041576.666727432
657.1917038,6038664.764234661
654.0362346,6042541.655072353
650.9184646000001,6040344.735768911
647.8377654,6043032.851116156
644.7935217999999,6041219.089679125
641.7851312999999,6041095.893186865
638.8120038,6041177.5464291535
635.8735614,6041011.594907725
632.9692378999999,6041850.944576346
630.0984786,6041699.279992628
627.2607402000001,6041213.015262783
624.4554901,6039856.491545858
621.6822068,6041501.131290216
618.940379,6040850.931915165
616.2295054,6041236.0554296
613.549095,6041482.2103796275
610.8986664,6041661.269859873
608.2777476,6041382.609603317
605.6858758999999,6041496.113973681
603.1225977000001,6041283.53827953
600.5874682,6041478.253190097
598.0800512,6041330.337207736
595.5999188999999,6041481.43423474
593.1466518,6041610.260374784
590.7198384999999,6041597.703569197
588.3190752,6041392.982575521
585.943966,6041348.815037607
583.5941226,6041579.328968543
581.2691637,6041466.142753224
578.9687155,6041650.888259479
576.692411,6041248.64203738
574.4398902,6041512.208390615
572.2107997,6041299.208609862
570.0047927,6042163.484744937
567.8215287,6041342.6486404175
565.6606737000001,6041106.218609422
563.5218996,6041351.509892862
561.4048845,6041199.769078495
559.3093121,6041707.856341737
557.2348721,6041180.112280677
555.1812597,6041199.477239412
553.1481756000001,6041710.9240772985
551.1353259,6041789.003691661
549.1424218999999,6041435.893372402
547.1691801,6040889.370996578
545.2153222000001,6041784.241961958
543.2805745000001,6041669.450598207
541.3646685,6041499.506993635
539.46734,6041670.210336085
537.5883299,6041402.394592281
535.7273833,6041653.055972644
533.8842498,6041266.435769705
532.0586836,6040974.418684673
530.2504428000001,6041519.427276995
528.45929,6041471.879385489
526.6849915,6041435.5871323915
524.927318,6041462.439652816
523.186044,6041161.542721605
521.4609475999999,6041627.947650513
519.7518110000001,6041756.821228407
518.0584200000001,6041596.064134178
516.3805639,6041350.007802391
514.7180356,6041503.91967285
513.0706316000001,6041493.3275275165
511.43815149999995,6041370.732768359
509.82039860000003,6041323.529343133
508.2171791999999,6041306.283111194
506.628303,6041485.275939545
505.05358269999994,6041572.691710614
503.4928341,6041648.412957915
501.9458762,6041180.690197176
500.41253059999997,6041567.79495407
498.8926222,6041419.073417991
497.3859785,6041653.977939543
495.89242989999997,6041435.531550268
494.4118094,6041343.748329353
492.943953,6041387.860985616
491.488699,6041267.847121717
490.04588839999997,6041465.410055103
488.6153648,6041520.896760738
487.19697429999997,6041067.677023985
485.7905654,6041461.998658101
484.39598889999996,6041052.725129953
483.01309800000007,6041603.157660584
481.64174840000004,6041491.147972927
480.28179789999996,6041517.892916507
478.93310639999993,6041309.620253722
477.59553619999997,6041472.8565580165
476.2689517,6041467.34314788
474.9532192,6041299.681231752
473.6482074,6041688.484786431
472.35378679999997,6041777.973361071
471.06982989999995,6041207.111361529
469.79621110000005,6041598.586963182
468.53280700000005,6040944.613164365
467.2794956999999,6040952.3838106785
466.0361575,6041321.47038264
464.80267410000005,6041633.924499416
463.5789295,6041478.766718177
462.364809,6041324.084933981
461.1601998,6041543.47246232
459.9649909,6041550.234832066
458.7790727,6041136.553032871
457.6023374,6041423.255643091
456.4346788,6041290.095704635
455.2759921,6041009.751515377
454.12617439999997,6041329.742629953
452.9851239,6041166.389927025
451.85274060000006,6041165.1350068515
450.7289258,6041238.302854247
449.6135822,6041635.758958087
448.5066141,6041701.282513514
447.407927,6041160.087515746
446.317428,6040940.657863375
445.23502520000005,6040985.280697933
444.1606283,6040761.172074293
443.0941482,6041256.97534971
442.03549699999996,6041618.4102118565
440.9845882,6041172.184336535
439.9413364,6041103.27441271
438.9056575,6041526.864678787
437.87746860000004,6041188.798489635
436.85668780000003,6041141.606166251
435.8432345,6041468.055530538
434.83702930000004,6041649.14807406
433.83799369999997,6041409.702069561
432.84605039999997,6041448.136630353
431.8611232,6041434.305590256
430.8831369,6041636.576738622
429.9120175,6041066.540251416
428.94769169999995,6041354.145398484
427.9900874,6041441.708324265
427.03913370000004,6041399.438094765
426.0947602,6041143.922647201
425.1568978,6041561.282855257
424.22547829999996,6041460.795366199
423.3004343,6041398.214628413
422.3816994,6041522.830414241
421.4692081,6041306.811600371
420.56289569999996,6041104.63843492
419.66269850000003,6041205.032776712
418.7685535,6041490.064961969
417.8803987,6041501.854584575
416.9981727,6041331.145059752
416.12181519999996,6041316.765167354
415.25126639999996,6041182.287009963
414.38646760000006,6041390.352408607
413.5273605,6041234.044961524
412.673888,6041437.588928913
411.8259934,6041220.507724
410.9836208,6041076.681914904
410.14671519999996,6041673.636616183
409.3152221,6041538.491577901
408.48908789999996,6041273.954227492
407.66825960000006,6041346.213454072
406.8526847,6041581.073356535
406.0423117,6041439.2119387165
405.2370896,6041251.513005999
404.43696800000004,6041773.936478863
403.64189730000004,6041556.678442245
402.8518283,6041175.7123893285
402.0667126,6041248.851486842
401.28650239999996,6041173.383792014
400.5111505,6041578.007704771
399.7406101,6040928.186915655
398.9748353,6041354.543974157
398.2137806,6041500.949659793
397.457401,6041385.026214446
396.7056521,6033934.412273304
395.9584903,6012876.775800115
395.2158722,5971183.0234644925
394.4777551,5902554.37606164
393.7440968,5801001.795947378
393.0148555,5661474.248166605
392.2899901,5478208.48226202
391.56946,5248647.631692667
390.853225,4980799.379145577
390.1412452,4685997.040743528
389.43348169999996,4372843.493052844
388.7298955,4050947.06004597
388.03044839999995,3731622.1242944933
387.3351027,3420541.7176857432
386.6438209,3126029.0089734723
385.95656610000003,2854474.6763291764
385.2733019,2604316.355923893
384.5939922,2375906.274613341
383.9186014,2165950.6296765357
383.2470943,1973505.2917378887
382.5794362,1796294.198711575
381.9155926,1633928.0731771474
381.2555296,1486235.6024212763
380.59921360000004,1351868.0261554655
379.9466115,1230751.231045374
379.29769039999996,1122071.8663958316
378.652418,1025328.6066759218
378.0107622,941614.8216999824
377.37269130000004,868920.5391154706
376.73817410000004,806806.2047653613
376.1071796,753359.1418085124
375.47967719999997,708141.9121698354
374.8556368,669411.2220735777
374.2350283,636160.933928389
373.6178223,607173.0706515997
373.0039896,581137.2835062095
372.3935012,557428.2210282589
371.78632860000005,535782.725722037
371.1824436,515212.1965829696
370.5818182,495672.0742004248
369.98442489999996,476989.21095449757
369.39023629999997,458991.39035296364
368.7992255,441938.3816219315
368.2113658,425515.9677580992
367.6266307,409385.06901399017
367.0449943,393680.38556783006
366.4664305,378559.0490790439
365.89091410000003,363998.427078273
365.3184196,349949.86609754397
364.7489221,336223.58232341806
364.18239689999996,322794.76131437236
363.61881960000005,309795.0060003661
363.058166,297359.1068900322
362.50041219999997,285356.74582411104
361.94553460000003,273714.5079331804
361.3935098,262283.63073596876
360.8443147,251038.01503545122
360.29792630000003,240004.6343666647
359.754322,229250.45644927397
359.2134795,218552.13686907926
358.6753765,207996.2534247539
358.1399912,197701.35646616048
357.6073018,187630.22464559012
357.077287,177965.5316659979
356.5499253,168680.16745859684
356.025196,159699.23630237256
355.50307799999996,151063.2509058247
354.983551,142900.58499161148
354.4665945,135187.36058917124
353.95218839999995,127696.49096648904
353.4403127,120447.92622277055
352.9309478,113404.92394527634
352.42407410000004,106584.03672066248
351.9196722,100158.34040302195
351.4177232,94137.20287536943
350.91820789999997,88460.21388927069
350.4211078,83006.28755266072
349.9264043,77805.69450568342
349.434079,72842.5203557596
348.9441137,68061.07033408407
348.45649060000005,63587.892036359925
347.97119169999996,59227.70749683626
347.48819960000003,54883.10427975476
347.0074967,50591.6180282167
346.5290657,46544.5582834037
346.0528897,42903.5440668519
345.5789517,39662.17488005231
345.1072349,36711.03246460722
344.6377228,34025.79485775382
344.17039889999995,31645.195052415093
343.70524710000007,29566.02498746203
343.24225110000003,27675.290957045683
342.7813952,25906.907752104005
342.32266339999995,24106.913911956734
341.8660403,22274.47945295197
341.4115102,20599.055409758992
340.959058,18997.942968553158
340.5086685,17407.732678408196
340.06032660000005,15760.384593587369
339.6140175,14208.784487145927
339.1697264,12747.685811350058
338.7274388,11364.105907721458
338.28714019999995,10059.636872532576
337.8488164,8719.703944331435
337.41245310000005,7442.5682715443445
336.9780363,6306.172089284634
336.5455522,5367.762505447456
336.114987,4534.1694182161
335.686327,3826.247306737828
335.2595588,3205.6585461123145
334.834669,2686.8117511630626
334.4116443,2273.8747390836866
333.9904716,1912.7543596837156
333.57113799999996,1597.5011615296326
333.1536305,1281.516758975903
332.73793639999997,990.0922040368924
332.32404310000004,734.3687304062196
331.91193799999996,520.4972884172836
331.5016088,342.9250239249578
331.0930432,217.37439208130124
330.6862289,129.569480425331
330.281154,63.314084971728064
329.8778065,22.96828565962784
329.47617460000004,8.57277444533559
329.07624649999997,-0.4318085516220013
328.6780106,-0.8740668551289239
328.2814555,0.13673039643357104
327.88656960000003,-2.7059557227714857
327.4933418,1.0756122010496632
327.1017607,-0.1845626334697214
326.7118154,-2.1525557349990514
326.32349480000005,1.6517470612881242
325.93678789999996,-2.118510733772113
325.5516841,-2.6411839042253926
325.16817260000005,4.837604927175191
324.7862428,-4.402622510619827
324.40588419999995,-4.456511539792003
324.0270864,-0.3324820424747775
323.649839,2.416289567768441
323.2741319,2.3829207024443857
322.8999548,-3.688658428539472
322.5272977,1.3236010428780574
322.1561508,1.4593006607281334
321.786504,1.0576712535729138
321.4183476,0.23120639057404915
321.0516719,0.15907049677804946
320.6864673,3.8196716168958833
320.3227243,2.2090191294370274
319.96043330000003,2.2100586410424645
319.5995851,-0.16840542651426585
319.2401704,-3.4591947230066284
318.8821799,3.4527808179416115
318.5256045,0.2374690814388447
318.1704352,4.547611949616595
317.8166631,-0.9887579064151876
317.4642791,2.139436855483141
317.1132746,-6.394519045079773
316.76364069999994,-0.2493946297188251
316.4153688,2.7322891981031936
316.06845039999996,-0.5735856903031431
315.72287689999996,-2.089936152988931
315.37863980000003,-3.924089626466148
315.0357308,-5.925411198816748
314.6941415,-4.7013619704705985
314.3538639,1.0899177621449243
314.0148896,-1.4340856325114415
313.6772106,1.5481801174024934
313.3408189,3.2618492992350734
313.00570639999995,0.1639379890423815
312.67186549999997,-0.10389037019968783
312.33928810000003,1.5803290069399998
312.0079665,-1.8724734459019767
311.6778931,1.0221032901932208
311.34906010000003,3.1541222911742746
311.0214601,3.244105737365337
310.6950856,-2.6984799651396414
310.369929,-5.866859300552004
310.04598300000004,4.488377124907731
309.7232403,-0.1804913826833094
309.4016935,1.0645680289849868
309.0813356,0.9959917156689232
308.7621594,1.4958811765944386
308.4441577,0.8201925884569176
308.1273236,-3.4688024231830217
307.8116501,-2.822218658219338
307.49713019999996,-3.2448755742773803
307.18375710000004,-2.464612837252416
306.871524,-6.657558104921777
306.5604242,0.22429886952150888
306.2504509,0.8006906581906643
