wave,flux
1817.164934,17.02013321388061
1790.1022050000001,-41.182226529678566
1763.812741,-6.994049946240962
1738.2646949999998,61.54549867378577
1713.427949,128.81861213334815
1689.273995,752.4551234644415
1665.7758310000002,2261.207973202875
1642.907862,4736.75150202622
1620.64581,8205.937777817151
1598.9666300000001,12731.367386548147
1577.8484310000001,18335.417148179928
1557.270407,25129.470818533646
1537.212767,33054.840922777774
1517.65668,41249.128721024324
1498.5842089999999,49224.681758486884
1479.978265,56841.64305256728
1461.822555,64026.98922471372
1444.101535,70806.67746003263
1426.800368,77058.90442177675
1409.904887,82681.32201269269
1393.401553,87828.76265233984
1377.2774220000001,92664.66108472527
1361.520115,97593.24545281033
1346.117782,102331.2830268434
1331.059081,107160.33237607936
1316.3331449999998,112094.9837835124
1301.92956,116913.68256175672
1287.838342,121827.5367196676
1274.049912,126754.64101683101
1260.5550779999999,131496.83449026474
1247.345017,136532.06499002545
1234.4112519999999,141476.72279619807
1221.74564,146417.52522375144
1209.340352,151497.14082655855
1197.187859,156252.36436434547
1185.28092,161371.3995603529
1173.612564,166352.89399398185
1162.1760800000002,171494.0105524935
1150.9650060000001,176613.4740185174
1139.973115,181855.52646143656
1129.194406,186970.16395512046
1118.623093,192006.55007917568
1108.253594,197193.58687402093
1098.0805269999998,202377.17337498392
1088.098695,207617.1360275436
1078.303081,212835.33590005667
1068.688841,218385.49519907092
1059.251295,223931.24247771245
1049.9859199999999,230388.7104643221
1040.8883449999998,237636.95747119488
1031.9543429999999,246021.8401995341
1023.1798259999999,255177.79214835737
1014.5608390000001,265952.148679333
1006.0935529999999,277760.342272403
997.774265,290511.6853604158
989.5993858999999,304581.9970189681
981.5654412999999,318885.0772075081
973.6690651,333714.5639562713
965.9069952,348705.91712584114
958.2760697000001,362973.0663765557
950.7732231000001,376986.5564771142
943.3954827,390038.2435290051
936.1399648,402068.3451110875
929.0038716,413309.4551257848
921.9844879000001,423394.3421201839
915.0791782,432286.9879567906
908.2853836000002,441299.7092116453
901.6006193,450069.95945703506
895.0224714,458817.2417479873
888.548595,469184.67558781774
882.1767113,481168.5469824718
875.9046055,495042.28670608974
869.7301242999998,511664.85752917797
863.6511742999999,531059.7155142641
857.6657193,556426.6469119657
851.7717787,585965.2935658926
845.9674256000001,619356.705145673
840.2507849,661298.4811127054
834.6200316000001,709987.0700293209
829.0733892000001,766142.6312027697
823.6091279,831319.9253656791
818.2255633999999,903545.7551899035
812.9210552000001,983544.3278882984
807.694005,1066705.2328378852
802.5428559,1156589.889641944
797.4660904,1247815.2329342617
792.4622299,1343557.276380533
787.5298327,1447555.3034404784
782.6674933999999,1560320.7841490426
777.8738417999999,1691700.6231899338
773.1475413,1856199.7084550704
768.4872882999999,2056985.1918572425
763.8918112000001,2313396.562362705
759.3598692,2622122.3886256446
754.8902515999999,2978110.6547424933
750.4817767999999,3367688.6650496013
746.1332914,3786243.9037884274
741.8436694000001,4212820.508588202
737.6118116,4623311.847097635
733.4366444,4998890.142907095
729.3171195,5315493.480507294
725.2522127999999,5562257.732574477
721.2409241,5751728.979072575
717.282276,5886252.507872508
713.3753136,5971283.43228082
709.5191037000001,6017040.2982760975
705.7127343,6038472.159935892
701.9553139,6038262.501987983
698.2459709,6041159.460484373
694.5838534,6044265.8868427565
690.9681281000001,6043106.089976072
687.3979803,6041465.55009703
683.8726131,6040586.276285851
680.3912472999999,6040398.564330937
676.9531202000001,6042299.080610597
673.557486,6043320.1704355385
670.2036149,6044135.944720972
666.8907926,6040406.598307965
663.6183202999999,6040638.925945997
660.3855139,6042201.204298784
657.1917038,6041162.641944156
654.0362346,6044486.4616990285
650.9184646000001,6042584.430792147
647.8377654,6041591.0410497775
644.7935217999999,6041873.479783844
641.7851312999999,6040083.711947436
638.8120038,6040520.491146082
635.8735614,6039814.054942901
632.9692378999999,6040182.650065434
630.0984786,6041962.158706179
627.2607402000001,6041505.5185031425
624.4554901,6041019.632988358
621.6822068,6042819.020842599
618.940379,6041569.291340392
616.2295054,6041175.542002164
613.549095,6041566.447025953
610.8986664,6041221.740958122
608.2777476,6041082.276902374
605.6858758999999,6041631.949715657
603.1225977000001,6041501.37096465
600.5874682,6041119.013789955
598.0800512,6041203.1625882685
595.5999188999999,6041549.098704748
593.1466518,6041227.452021654
590.7198384999999,6041368.612844304
588.3190752,6041214.902636552
585.943966,6041288.716753447
583.5941226,6041772.01984226
581.2691637,6041242.866705787
578.9687155,6041220.271982015
576.692411,6041344.716192109
574.4398902,6041219.230422447
572.2107997,6040644.631169072
570.0047927,6041270.813260294
567.8215287,6041346.538971654
565.6606737000001,6041583.300377453
563.5218996,6041186.248718885
561.4048845,6041658.818712254
559.3093121,6041708.307511635
557.2348721,6041259.131515023
555.1812597,6041624.172980322
553.1481756000001,6041698.174290355
551.1353259,6041688.878495253
549.1424218999999,6041412.189629839
547.1691801,6041543.48367713
545.2153222000001,6041662.695790797
543.2805745000001,6040965.416890266
541.3646685,6041482.16515284
539.46734,6041660.9412324475
537.5883299,6041102.624329397
535.7273833,6041328.511845966
533.8842498,6041789.5979172615
532.0586836,6041945.843718927
530.2504428000001,6041601.10021709
528.45929,6041378.498227762
526.6849915,6041198.421154751
524.927318,6041275.695224457
523.186044,6041580.682404297
521.4609475999999,6041556.540720584
519.7518110000001,6041397.288825478
518.0584200000001,6041330.864419234
516.3805639,6041683.971855964
514.7180356,6041480.637685577
513.0706316000001,6041155.971232883
511.43815149999995,6041400.11291544
509.82039860000003,6041197.133324686
508.2171791999999,6041345.66199513
506.628303,6041273.69988547
505.05358269999994,6041258.115527303
503.4928341,6041573.346730257
501.9458762,6041643.352067341
500.41253059999997,6041553.797766512
498.8926222,6041203.63868256
497.3859785,6041920.268474543
495.89242989999997,6041923.671585374
494.4118094,6041345.195856393
492.943953,6041511.949244687
491.488699,6041548.309878502
490.04588839999997,6041441.862670699
488.6153648,6039384.401404868
487.19697429999997,6028054.796456036
485.7905654,6001088.114006834
484.39598889999996,5953784.342380948
483.01309800000007,5880978.116677512
481.64174840000004,5778998.530682275
480.28179789999996,5645179.573494651
478.93310639999993,5476325.596780431
477.59553619999997,5273711.010758097
476.2689517,5049563.446637725
474.9532192,4813310.7580518415
473.6482074,4572151.467190683
472.35378679999997,4332396.538713349
471.06982989999995,4099026.2547981306
469.79621110000005,3873381.01482284
468.53280700000005,3658268.3719508518
467.2794956999999,3454153.4253988513
466.0361575,3256196.231954981
464.80267410000005,3062645.193271051
463.5789295,2871080.5791312563
462.364809,2681605.723327355
461.1601998,2495190.3007003856
459.9649909,2313937.359723514
458.7790727,2141587.8150268514
457.6023374,1979234.1486102557
456.4346788,1827615.4567639208
455.2759921,1687326.1282402358
454.12617439999997,1558609.1764693162
452.9851239,1441076.427050015
451.85274060000006,1334620.1439559076
450.7289258,1236892.412809523
449.6135822,1147371.554021995
448.5066141,1064744.011248525
447.407927,989186.00887567
446.317428,919673.5118875556
445.23502520000005,856272.7681509671
444.1606283,798437.1933682528
443.0941482,746326.5216030626
442.03549699999996,699629.2043090343
440.9845882,657872.5398999783
439.9413364,621161.2163066899
438.9056575,588708.6053678205
437.87746860000004,560161.9268885889
436.85668780000003,534803.8822893249
435.8432345,512138.64673875674
434.83702930000004,491128.4189468794
433.83799369999997,471315.7342082219
432.84605039999997,452195.4969392432
431.8611232,433373.2471016529
430.8831369,414664.13069818245
429.9120175,395877.0952754518
428.94769169999995,377159.7503836227
427.9900874,358634.730731358
427.03913370000004,340522.61093459395
426.0947602,322947.6107218181
425.1568978,306167.1197886988
424.22547829999996,290216.45657371357
423.3004343,275206.01956171176
422.3816994,261221.6475710259
421.4692081,248186.7665885943
420.56289569999996,236160.04147663983
419.66269850000003,225018.87898808945
418.7685535,214606.10434117052
417.8803987,204941.76822398638
416.9981727,195814.59280533085
416.12181519999996,187081.81941679452
415.25126639999996,178770.60168653703
414.38646760000006,170721.82696313813
413.5273605,163000.20450263142
412.673888,155504.2390248533
411.8259934,148286.46628250115
410.9836208,141322.80561992692
410.14671519999996,134698.79082188627
409.3152221,128388.21610603617
408.48908789999996,122368.38628204561
407.66825960000006,116665.1229040535
406.8526847,111269.90610261273
406.0423117,106147.51888568519
405.2370896,101310.50102912953
404.43696800000004,96732.54012455695
403.64189730000004,92358.28206372652
402.8518283,88228.75797866844
402.0667126,84302.44472494921
401.28650239999996,80534.86280499947
400.5111505,76942.95888683629
399.7406101,73281.38445080661
398.9748353,69509.49391903654
398.2137806,65658.69824030071
397.457401,61656.61552023402
396.7056521,57525.28690627267
395.9584903,53205.11232715387
395.2158722,48759.88242241922
394.4777551,44221.350833293254
393.7440968,39988.21103471236
393.0148555,36156.78762367232
392.2899901,32703.75937185241
391.56946,29749.452140061603
390.853225,27343.679152865367
390.1412452,25498.25969717959
389.43348169999996,24218.964672808303
388.7298955,23517.384546678724
388.03044839999995,23181.28219731411
387.3351027,23167.73900262122
386.6438209,23526.379290951176
385.95656610000003,24166.819397405132
385.2733019,24975.774887745465
384.5939922,25903.65244334839
383.9186014,26821.281655495983
383.2470943,27647.535120183908
382.5794362,28267.309225975812
381.9155926,28548.45906318924
381.2555296,28417.07967656624
380.59921360000004,27832.412303140765
379.9466115,26770.986690585287
379.29769039999996,25273.535693518574
378.652418,23404.9793729356
378.0107622,21253.174277995007
377.37269130000004,18925.17118807864
376.73817410000004,16547.467299267646
376.1071796,14205.812367776472
375.47967719999997,11985.990582168108
374.8556368,9962.427987334551
374.2350283,8180.238047914096
373.6178223,6656.279747944704
373.0039896,5389.450941001503
372.3935012,4343.5328869238365
371.78632860000005,3520.3341794043195
371.1824436,2877.4889854213143
370.5818182,2372.878594207799
369.98442489999996,1982.2762209068333
369.39023629999997,1682.8076120134774
368.7992255,1438.1867021068535
368.2113658,1247.8869575937013
367.6266307,1090.1770524560952
367.0449943,963.1828878922183
366.4664305,867.8108886302686
365.89091410000003,776.9236965688069
365.3184196,713.3649719264885
364.7489221,660.0874954459825
364.18239689999996,619.6338761030854
363.61881960000005,587.9864462733126
363.058166,560.9159685145836
362.50041219999997,538.4381189924758
361.94553460000003,521.7518219400905
361.3935098,501.14479567348366
360.8443147,491.1824942822583
360.29792630000003,473.7202542398772
359.754322,463.416196014347
359.2134795,451.0244674104997
358.6753765,442.0764892637452
358.1399912,430.41349888434587
357.6073018,424.13680807032165
357.077287,418.5360726711364
356.5499253,407.47409476800937
356.025196,397.5950946432023
355.50307799999996,387.357260604886
354.983551,384.9258509051389
354.4665945,373.4233603593119
353.95218839999995,358.5808397687876
353.4403127,345.14258512870725
352.9309478,337.0805149456196
352.42407410000004,321.48817269313184
351.9196722,304.9376288669829
351.4177232,290.0961521759972
350.91820789999997,269.29290595751
350.4211078,257.9594738310417
349.9264043,242.22602554905708
349.434079,230.93395544748964
348.9441137,216.7447112542751
348.45649060000005,205.2621568847108
347.97119169999996,192.6394633622771
347.48819960000003,185.956300842773
347.0074967,180.4178427038635
346.5290657,169.5646375458454
346.0528897,166.99901531225063
345.5789517,161.00249802547697
345.1072349,158.22821689379938
344.6377228,150.8075694124502
344.17039889999995,154.43933702109982
343.70524710000007,148.59678818902026
343.24225110000003,144.94226724731442
342.7813952,145.85030645800916
342.32266339999995,141.22605650825182
341.8660403,137.17126994498008
341.4115102,129.64972065452085
340.959058,128.15883677272458
340.5086685,122.80002569550388
340.06032660000005,121.47115898587299
339.6140175,117.93715420036754
339.1697264,112.81037473409462
338.7274388,115.59478584205657
338.28714019999995,111.36681479061942
337.8488164,106.05957147840998
337.41245310000005,109.1874002763693
336.9780363,102.00654063801821
336.5455522,108.00573301791671
336.114987,102.98507192453889
335.686327,100.33530807945131
335.2595588,90.29859493556057
334.834669,92.0157155826678
334.4116443,88.16413894372681
333.9904716,88.20110744817465
333.57113799999996,85.7142603693123
333.1536305,86.27964845011394
332.73793639999997,81.77554682444439
332.32404310000004,78.6231958291888
331.91193799999996,68.81152646264462
331.5016088,63.29073489987049
331.0930432,59.371314065530306
330.6862289,47.88749039013633
330.281154,39.67975791497899
329.8778065,31.699996796082768
329.47617460000004,20.920522492168992
329.07624649999997,15.595455234422786
328.6780106,8.983350535040488
328.2814555,9.025905544215403
327.88656960000003,2.014491061396896
327.4933418,1.0380793978035172
327.1017607,1.649816875176853
326.7118154,-4.7484538908113985
326.32349480000005,-0.0691299034647335
325.93678789999996,0.7087462676959241
325.5516841,2.050500361329965
325.16817260000005,-2.2798130990373013
324.7862428,-2.946249246198844
324.40588419999995,-4.313620007856496
324.0270864,0.26434328903038823
323.649839,-0.3618987900447868
323.2741319,-0.6972753992849674
322.8999548,1.2638954921304786
322.5272977,-6.9104766020099815
322.1561508,0.23567194153800164
321.786504,2.1128642469796266
321.4183476,-3.7993822470343055
321.0516719,0.6804234654975289
320.6864673,-2.7524959602814167
320.3227243,-0.005310932422809672
319.96043330000003,1.3996276408080313
319.5995851,1.7658107704056696
319.2401704,2.8544403698527683
318.8821799,-1.608695708963268
318.5256045,2.083351009198119
318.1704352,-4.769847078949502
317.8166631,0.6433623935029336
317.4642791,0.5733161513218823
317.1132746,-1.3139874868978356
316.76364069999994,6.0096930717300605
316.4153688,2.527126457779915
316.06845039999996,0.7965143995821519
315.72287689999996,0.8589310165142667
315.37863980000003,-1.3900061587420487
315.0357308,1.5826565349798047
314.6941415,4.513390633113326
314.3538639,-2.51524559571682
314.0148896,-0.3730986895845812
313.6772106,-0.4568419815073961
313.3408189,-0.004921636343454518
313.00570639999995,-2.8655001333291272
312.67186549999997,0.675024005162611
312.33928810000003,-4.231746961061483
312.0079665,2.0563568939713015
311.6778931,-4.400465939474108
311.34906010000003,0.1301137417089739
311.0214601,-0.5464703630744207
310.6950856,1.752245456154205
310.369929,-3.829518680775612
310.04598300000004,-2.8677871703249487
309.7232403,3.0227036261047555
309.4016935,0.6071866550915122
309.0813356,4.444106846377936
308.7621594,-0.00265847049304727
308.4441577,1.645402229097856
308.1273236,2.3694938744443443
307.8116501,-2.688662539984201
307.49713019999996,2.911585085326016
307.18375710000004,-1.3211169192177834
306.871524,3.8193627259385226
306.5604242,0.49578119914290597
306.2504509,-2.0364313288693583
