wave,flux
1817.164934,3.120189035148909
1790.1022050000001,1.9808512796129376
1763.812741,19.80109179034044
1738.2646949999998,67.65939693002844
1713.427949,194.58512087111168
1689.273995,775.9787224615864
1665.7758310000002,2151.618847152828
1642.907862,4338.756223044165
1620.64581,7378.12277555261
1598.9666300000001,11329.023832285071
1577.8484310000001,16311.086008858209
1557.270407,22254.988757493305
1537.212767,29169.56255306286
1517.65668,36375.062598362696
1498.5842089999999,43478.07520305637
1479.978265,50417.679526324915
1461.822555,57045.7989602467
1444.101535,63492.43070275563
1426.800368,69512.21378890773
1409.904887,75112.43612743042
1393.401553,80330.64987644898
1377.2774220000001,85474.42536368375
1361.520115,90614.32293845328
1346.117782,95790.03835281695
1331.059081,101030.94151227434
1316.3331449999998,106131.21050348796
1301.92956,111387.81897178896
1287.838342,116495.4499042711
1274.049912,121651.67967062232
1260.5550779999999,126888.78044229065
1247.345017,132022.46342802836
1234.4112519999999,136960.42426425306
1221.74564,142051.0854919235
1209.340352,147089.60874133185
1197.187859,152082.34551651494
1185.28092,157139.6764591363
1173.612564,161993.72132296773
1162.1760800000002,167051.50132361538
1150.9650060000001,171984.74207234554
1139.973115,176720.04213369507
1129.194406,181735.4994556908
1118.623093,186673.0684551314
1108.253594,191752.79107893078
1098.0805269999998,196739.46287653386
1088.098695,201378.29408725316
1078.303081,206339.41992602262
1068.688841,211296.45139664953
1059.251295,216855.8732786544
1049.9859199999999,222725.89598688454
1040.8883449999998,229203.51598800923
1031.9543429999999,236517.809584086
1023.1798259999999,244954.7340518441
1014.5608390000001,254154.8075654651
1006.0935529999999,264859.26133659127
997.774265,276106.68061271764
989.5993858999999,288153.5274848809
981.5654412999999,301169.53122348693
973.6690651,314041.78731671115
965.9069952,327093.3906309144
958.2760697000001,340179.39264073
950.7732231000001,352586.72607335827
943.3954827,364610.60163069476
936.1399648,375899.4637363708
929.0038716,386749.2380195157
921.9844879000001,396787.653632109
915.0791782,406163.54136734456
908.2853836000002,415543.8337833244
901.6006193,425125.4645198608
895.0224714,434930.11683814327
888.548595,445559.77752840787
882.1767113,458466.8056894514
875.9046055,472787.7442876388
869.7301242999998,489339.4284913264
863.6511742999999,509489.24262663967
857.6657193,533031.0193160996
851.7717787,560517.6721879445
845.9674256000001,592100.0739214207
840.2507849,632351.8998465528
834.6200316000001,676597.426323935
829.0733892000001,728186.3496683518
823.6091279,785161.8676616763
818.2255633999999,851078.201891548
812.9210552000001,921593.408797484
807.694005,996654.699193512
802.5428559,1076707.160010294
797.4660904,1160799.7990292106
792.4622299,1248807.8134221698
787.5298327,1344935.3165940754
782.6674933999999,1449482.4874586668
777.8738417999999,1575397.6912740562
773.1475413,1725276.2320386546
768.4872882999999,1916598.829933097
763.8918112000001,2153398.411798768
759.3598692,2446306.321290067
754.8902515999999,2783556.2491870723
750.4817767999999,3166712.3244340443
746.1332914,3577630.230134556
741.8436694000001,4003026.2470192863
737.6118116,4422254.528195824
733.4366444,4811365.791653757
729.3171195,5159993.831848545
725.2522127999999,5438147.9860118935
721.2409241,5659738.7740144385
717.282276,5818194.862363201
713.3753136,5927636.900009279
709.5191037000001,5997269.511217008
705.7127343,6028664.379352633
701.9553139,6044240.107528615
698.2459709,6041769.1960650375
694.5838534,6041191.287028408
690.9681281000001,6040215.075494141
687.3979803,6042627.614404506
683.8726131,6041573.739718523
680.3912472999999,6040630.427716307
676.9531202000001,6039439.1739332285
673.557486,6041164.855781889
670.2036149,6039878.754310521
666.8907926,6042055.2821217
663.6183202999999,6042074.121450941
660.3855139,6042223.019201863
657.1917038,6041480.43738016
654.0362346,6041681.985331577
650.9184646000001,6042256.78268854
647.8377654,6041528.8474138575
644.7935217999999,6042978.812545685
641.7851312999999,6040240.267990582
638.8120038,6042386.196354708
635.8735614,6042323.914163913
632.9692378999999,6043471.88348188
630.0984786,6041337.25545152
627.2607402000001,6041547.054954715
624.4554901,6042160.606718292
621.6822068,6040950.157493635
618.940379,6041226.311919362
616.2295054,6040663.674833302
613.549095,6041315.591540099
610.8986664,6041693.338484324
608.2777476,6041553.918014512
605.6858758999999,6041174.51825711
603.1225977000001,6041757.640894363
600.5874682,6041182.6630350435
598.0800512,6041399.88331492
595.5999188999999,6041728.222121735
593.1466518,6041893.592585531
590.7198384999999,6041549.925429807
588.3190752,6041343.846857339
585.943966,6041412.2991026025
583.5941226,6041081.617582005
581.2691637,6041459.23758448
578.9687155,6041433.662957615
576.692411,6041374.921802128
574.4398902,6040989.384149489
572.2107997,6041269.340016712
570.0047927,6041780.112359063
567.8215287,6041493.985135296
565.6606737000001,6041263.715150959
563.5218996,6041174.708759595
561.4048845,6041584.367356594
559.3093121,6041158.495587374
557.2348721,6041469.775481509
555.1812597,6041211.773653437
553.1481756000001,6041927.271992584
551.1353259,6041651.22474518
549.1424218999999,6041431.407379918
547.1691801,6041586.863542748
545.2153222000001,6041377.83309869
543.2805745000001,6041342.473189308
541.3646685,6040855.091780425
539.46734,6041569.084496405
537.5883299,6041253.725901391
535.7273833,6041200.8472790485
533.8842498,6041592.372678195
532.0586836,6041245.0681929365
530.2504428000001,6041700.286391333
528.45929,6041154.94481713
526.6849915,6041305.9694895875
524.927318,6041224.234915999
523.186044,6041305.277694143
521.4609475999999,6041417.863530736
519.7518110000001,6041442.319830605
518.0584200000001,6041287.8677783925
516.3805639,6041353.124264865
514.7180356,6041389.038618723
513.0706316000001,6041190.988731612
511.43815149999995,6041337.137901051
509.82039860000003,6041511.678331197
508.2171791999999,6041664.313808309
506.628303,6041241.7640941935
505.05358269999994,6041896.87636559
503.4928341,6041868.490284038
501.9458762,6041256.079850432
500.41253059999997,6041246.672237067
498.8926222,6041605.152523313
497.3859785,6041365.778543742
495.89242989999997,6041261.084223627
494.4118094,6041268.638670857
492.943953,6041305.86953372
491.488699,6041565.788811702
490.04588839999997,6041457.1705685565
488.6153648,6041766.658741351
487.19697429999997,6041496.118732544
485.7905654,6041693.930062974
484.39598889999996,6040750.946950338
483.01309800000007,6041074.578498183
481.64174840000004,6041102.476737668
480.28179789999996,6041163.30154535
478.93310639999993,6041237.90657285
477.59553619999997,6041584.861510804
476.2689517,6041616.451953574
474.9532192,6041311.283629232
473.6482074,6041294.056254976
472.35378679999997,6041689.615795249
471.06982989999995,6041525.581301519
469.79621110000005,6041690.809215744
468.53280700000005,6041391.625798599
467.2794956999999,6041081.853857231
466.0361575,6041544.539691628
464.80267410000005,6041410.034540386
463.5789295,6041344.632937035
462.364809,6041391.437623767
461.1601998,6041045.451169324
459.9649909,6041276.410916196
458.7790727,6041319.851810657
457.6023374,6041290.019221682
456.4346788,6041281.824675002
455.2759921,6040998.368685986
454.12617439999997,6040928.058270778
452.9851239,6041204.193288245
451.85274060000006,6041229.356956148
450.7289258,6039364.768946194
449.6135822,6031580.37334661
448.5066141,6013009.424755462
447.407927,5979665.876507219
446.317428,5927118.973965794
445.23502520000005,5850059.399361561
444.1606283,5744871.430463798
443.0941482,5607830.238959403
442.03549699999996,5439067.576564465
440.9845882,5243383.873937373
439.9413364,5027660.092187898
438.9056575,4799035.594789972
437.87746860000004,4565928.283385527
436.85668780000003,4335948.858905117
435.8432345,4117962.2014531377
434.83702930000004,3919906.7361560236
433.83799369999997,3746615.2119445633
432.84605039999997,3599575.771928058
431.8611232,3479882.481262918
430.8831369,3385986.2464865563
429.9120175,3313383.658689673
428.94769169999995,3259522.574665315
427.9900874,3218148.7957531367
427.03913370000004,3184155.001072408
426.0947602,3151505.55050176
425.1568978,3114697.2991260407
424.22547829999996,3070808.7355085793
423.3004343,3015673.6886476413
422.3816994,2948876.347574808
421.4692081,2869868.4057216006
420.56289569999996,2780934.387178048
419.66269850000003,2684805.875882828
418.7685535,2584165.4194591697
417.8803987,2484096.1833053003
416.9981727,2387816.9707297133
416.12181519999996,2299713.5751919416
415.25126639999996,2222434.286237647
414.38646760000006,2158307.252338185
413.5273605,2108088.8415108067
412.673888,2072134.9707219596
411.8259934,2048733.657584035
410.9836208,2036006.6160311103
410.14671519999996,2030497.0386002797
409.3152221,2029119.121633135
408.48908789999996,2028378.108397676
407.66825960000006,2024838.23853158
406.8526847,2015615.4792870672
406.0423117,1998462.5528528003
405.2370896,1972243.2940682848
404.43696800000004,1936806.156818589
403.64189730000004,1892462.2264157797
402.8518283,1840561.5932329441
402.0667126,1782539.243895069
401.28650239999996,1720052.513116386
400.5111505,1654779.7984518588
399.7406101,1588242.3028722585
398.9748353,1521577.1028016026
398.2137806,1455553.9636452254
397.457401,1390401.227434699
396.7056521,1326922.3159695738
395.9584903,1264907.2596987009
395.2158722,1204729.4107096265
394.4777551,1147026.9494742611
393.7440968,1091701.3511116218
393.0148555,1039251.1593453272
392.2899901,990085.9624914036
391.56946,944546.4874438315
390.853225,902423.3977236779
390.1412452,863945.9276582128
389.43348169999996,828449.0728531057
388.7298955,795758.8148597142
388.03044839999995,764800.1661135791
387.3351027,735388.7455713915
386.6438209,706614.4434634333
385.95656610000003,678169.5562087175
385.2733019,649450.1489591496
384.5939922,620331.5548289516
383.9186014,590376.8448880567
383.2470943,559685.6003089236
382.5794362,528229.160077496
381.9155926,496263.6789345938
381.2555296,463534.5112091083
380.59921360000004,430558.3556827646
379.9466115,397492.4862090283
379.29769039999996,364634.2416559842
378.652418,332415.10066620377
378.0107622,301208.4136229496
377.37269130000004,271394.6983137153
376.73817410000004,243342.5450294376
376.1071796,217396.9398660426
375.47967719999997,193811.77825724296
374.8556368,172715.60150725627
374.2350283,154154.4431432493
373.6178223,137992.3564795719
373.0039896,124223.1477933883
372.3935012,112490.60360223678
371.78632860000005,102555.4465328005
371.1824436,94232.01420584184
370.5818182,87204.6659028996
369.98442489999996,81239.31731953817
369.39023629999997,76104.49645250624
368.7992255,71601.18959206415
368.2113658,67507.29364939207
367.6266307,63851.705236870206
367.0449943,60479.508637010775
366.4664305,57377.4402960942
365.89091410000003,54540.805681134814
365.3184196,51856.52062040408
364.7489221,49400.73593531735
364.18239689999996,47139.355355306834
363.61881960000005,45116.03372258095
363.058166,43258.14861969936
362.50041219999997,41563.75678931665
361.94553460000003,39978.60185102083
361.3935098,38497.8779161886
360.8443147,37103.06464284743
360.29792630000003,35782.553201881296
359.754322,34496.11888562241
359.2134795,33219.042861358255
358.6753765,31932.742399293613
358.1399912,30674.80818681003
357.6073018,29407.014567222675
357.077287,28153.483776254772
356.5499253,26899.590459069423
356.025196,25635.357491137584
355.50307799999996,24378.071974007056
354.983551,23150.87800815611
354.4665945,21993.16937908161
353.95218839999995,20854.733686122367
353.4403127,19778.15565707901
352.9309478,18760.316668546442
352.42407410000004,17822.692683534733
351.9196722,16950.965798454705
351.4177232,16159.926570957068
350.91820789999997,15419.670900660669
350.4211078,14724.560381935707
349.9264043,14079.346198657442
349.434079,13469.121020415148
348.9441137,12890.116925719374
348.45649060000005,12310.276522879121
347.97119169999996,11738.402633487309
347.48819960000003,11167.13584109022
347.0074967,10583.208505145356
346.5290657,10000.00792246686
346.0528897,9430.538228159654
345.5789517,8849.461373025628
345.1072349,8282.659149056812
344.6377228,7729.0110009287255
344.17039889999995,7220.659480630528
343.70524710000007,6748.796343998339
343.24225110000003,6304.0531038209765
342.7813952,5888.405825623542
342.32266339999995,5508.914446279635
341.8660403,5136.183232554953
341.4115102,4804.2702545923685
340.959058,4478.242512919641
340.5086685,4170.304264472128
340.06032660000005,3867.158676092121
339.6140175,3574.231622839809
339.1697264,3308.7068369821413
338.7274388,3061.1778988366636
338.28714019999995,2831.190945427212
337.8488164,2621.903049330813
337.41245310000005,2429.737705630572
336.9780363,2257.08172493749
336.5455522,2112.7107616384037
336.114987,1970.250855800165
335.686327,1821.0567753944656
335.2595588,1680.8662216312262
334.834669,1546.3954803470276
334.4116443,1408.7333435600103
333.9904716,1275.4758497429675
333.57113799999996,1135.5231431885672
333.1536305,1009.3253190516333
332.73793639999997,888.6927054406882
332.32404310000004,773.1891912073593
331.91193799999996,673.5673865709479
331.5016088,573.5929053579071
331.0930432,483.71087193772604
330.6862289,400.2014145887412
330.281154,320.9506397913047
329.8778065,252.15950646749008
329.47617460000004,189.75870926312118
329.07624649999997,133.64476067441007
328.6780106,92.99952518744641
328.2814555,56.81470217745488
327.88656960000003,29.74460177227595
327.4933418,14.042540469759595
327.1017607,9.486921250305043
326.7118154,3.3334091699571253
326.32349480000005,2.888653170838785
325.93678789999996,0.6421736417831202
325.5516841,-3.01627670611004
325.16817260000005,4.354647618446275
324.7862428,0.5190900056018586
324.40588419999995,-0.8630488968146761
324.0270864,-4.557506561735425
323.649839,0.5198829018198007
323.2741319,1.1169508791687701
322.8999548,1.34240782212459
322.5272977,-2.8290495626520187
322.1561508,1.252816580847698
321.786504,0.4894176427368542
321.4183476,6.399422035518537
321.0516719,2.3923785106366733
320.6864673,0.509225063515689
320.3227243,1.6984664656956092
319.96043330000003,-1.1636774678836512
319.5995851,-1.1288687755697295
319.2401704,5.629101934271692
318.8821799,-1.414118624312733
318.5256045,-4.533546407638694
318.1704352,-0.9308385714322726
317.8166631,1.6651298343845546
317.4642791,1.12797681424366
317.1132746,1.0333070925808685
316.76364069999994,2.2405383577596902
316.4153688,2.7529048216892247
316.06845039999996,1.542372690142528
315.72287689999996,1.5742975713632985
315.37863980000003,-1.2083671986982472
315.0357308,0.6527856282426184
314.6941415,-2.513304218352089
314.3538639,-1.8153322345525669
314.0148896,5.492515531081914
313.6772106,1.9105563139060555
313.3408189,-0.3912270716407088
313.00570639999995,1.0377086388923455
312.67186549999997,-3.5567291221026074
312.33928810000003,-0.09378236034813432
312.0079665,-2.5367104300884726
311.6778931,-1.926707885566527
311.34906010000003,3.879596760001326
311.0214601,-1.2463265095520757
310.6950856,4.013968304238328
310.369929,3.1702055544269516
310.04598300000004,3.878085787317727
309.7232403,5.771066796617581
309.4016935,1.5187873728915968
309.0813356,-3.981663521841094
308.7621594,0.7030956916708249
308.4441577,0.7635779606051265
308.1273236,-1.546346461814887
307.8116501,1.6129750538125591
307.49713019999996,-2.375484561782337
307.18375710000004,-2.3278266337168896
306.871524,2.2527505313088043
306.5604242,-4.2068990443119105
306.2504509,-1.534673828791416
