wave,flux
1817.164934,16.368333834674928
1790.1022050000001,37.23443916635488
1763.812741,-2.5213537121486365
1738.2646949999998,75.15976812891984
1713.427949,195.27936394676536
1689.273995,1106.3937130375043
1665.7758310000002,3394.18091227594
1642.907862,6920.807848804727
1620.64581,11923.865948617493
1598.9666300000001,18501.71369099948
1577.8484310000001,26665.030003618398
1557.270407,36630.57465042261
1537.212767,48159.800380930166
1517.65668,60277.01698400098
1498.5842089999999,72128.62568907767
1479.978265,83854.43476766389
1461.822555,95171.64696861847
1444.101535,105959.54706823807
1426.800368,116076.39973853863
1409.904887,125291.74914512887
1393.401553,133451.13743731758
1377.2774220000001,140961.29576373487
1361.520115,147958.56292083452
1346.117782,154419.55727672172
1331.059081,160072.2238281127
1316.3331449999998,165295.76167653268
1301.92956,169896.23653945114
1287.838342,174243.96422246384
1274.049912,178217.45371839788
1260.5550779999999,182021.2034116808
1247.345017,185492.7704941201
1234.4112519999999,189128.61483607307
1221.74564,192550.46225073547
1209.340352,196281.61799110656
1197.187859,199942.2043871709
1185.28092,203639.97292614804
1173.612564,207517.07996389823
1162.1760800000002,211295.2059292406
1150.9650060000001,215193.1405044756
1139.973115,219130.53006792328
1129.194406,222908.90708391613
1118.623093,226666.12264245754
1108.253594,230682.67395706192
1098.0805269999998,234226.26118689714
1088.098695,238185.3288961166
1078.303081,242041.57575406163
1068.688841,246256.65197417114
1059.251295,250881.73419631989
1049.9859199999999,256423.49335088523
1040.8883449999998,263235.3477127092
1031.9543429999999,271281.9271033173
1023.1798259999999,281157.00132929924
1014.5608390000001,292761.6905705337
1006.0935529999999,306492.3462865859
997.774265,321932.93825439754
989.5993858999999,338723.41179142985
981.5654412999999,356996.76285908226
973.6690651,375900.1599911465
965.9069952,394947.0700035986
958.2760697000001,413888.4507672475
950.7732231000001,431510.0469532533
943.3954827,448703.58775116963
936.1399648,464609.53799142654
929.0038716,478918.0439892025
921.9844879000001,491814.03973762685
915.0791782,503127.225482787
908.2853836000002,513095.7729420016
901.6006193,523025.64290022093
895.0224714,532277.2828794478
888.548595,543541.0499507881
882.1767113,556545.3773932307
875.9046055,571029.5170524834
869.7301242999998,589900.4647916632
863.6511742999999,611853.0205060665
857.6657193,640338.6806263421
851.7717787,675585.1923027785
845.9674256000001,717124.7591688656
840.2507849,770925.0610638058
834.6200316000001,835512.8418214724
829.0733892000001,909384.2900747148
823.6091279,999795.2108250805
818.2255633999999,1103181.6544911163
812.9210552000001,1214213.9415022358
807.694005,1337778.1087056608
802.5428559,1465049.4274484757
797.4660904,1601461.0561336519
792.4622299,1742625.7775537057
787.5298327,1893303.995572108
782.6674933999999,2055091.3109909971
777.8738417999999,2248200.1394438143
773.1475413,2478316.1080573383
768.4872882999999,2750356.3700294425
763.8918112000001,3060861.923194352
759.3598692,3411048.4593823873
754.8902515999999,3786550.213517143
750.4817767999999,4180555.241781232
746.1332914,4575325.170694229
741.8436694000001,4940510.817496029
737.6118116,5259775.3944312865
733.4366444,5518213.929057314
729.3171195,5716348.309536547
725.2522127999999,5860693.335771885
721.2409241,5959252.83721183
717.282276,6011137.642948828
713.3753136,6036949.733613128
709.5191037000001,6042117.275990596
705.7127343,6039055.942674583
701.9553139,6040762.49151565
698.2459709,6040277.686017741
694.5838534,6040727.897793967
690.9681281000001,6041048.8055316815
687.3979803,6042423.095298615
683.8726131,6040876.166076978
680.3912472999999,6043043.417220889
676.9531202000001,6042599.33847442
673.557486,6043574.453971477
670.2036149,6042609.23049965
666.8907926,6040291.85096921
663.6183202999999,6041904.241370856
660.3855139,6040831.137394792
657.1917038,6041272.841336988
654.0362346,6040420.639588458
650.9184646000001,6041667.001169952
647.8377654,6040184.954841991
644.7935217999999,6041629.8301667115
641.7851312999999,6042013.047123202
638.8120038,6041615.200643018
635.8735614,6041277.055328896
632.9692378999999,6042374.179058911
630.0984786,6041263.36637206
627.2607402000001,6042424.218164977
624.4554901,6040607.627488103
621.6822068,6040951.638234641
618.940379,6041648.406083109
616.2295054,6041353.736457692
613.549095,6041460.951562835
610.8986664,6041176.607730958
608.2777476,6041714.76837252
605.6858758999999,6041452.587276579
603.1225977000001,6041483.342110857
600.5874682,6041336.532331052
598.0800512,6041313.56964722
595.5999188999999,6041307.041216628
593.1466518,6041156.572566219
590.7198384999999,6041661.839768222
588.3190752,6041495.240370318
585.943966,6041674.9346717615
583.5941226,6041707.775711763
581.2691637,6041230.801727486
578.9687155,6041255.602296447
576.692411,6040947.952152803
574.4398902,6041253.266104093
572.2107997,6041494.933542369
570.0047927,6041389.017470903
567.8215287,6041384.957764513
565.6606737000001,6041452.69919527
563.5218996,6041955.668631959
561.4048845,6040881.162378124
559.3093121,6041407.3163370015
557.2348721,6041718.639223799
555.1812597,6041683.3606042825
553.1481756000001,6041345.979051732
551.1353259,6041649.796909068
549.1424218999999,6041591.344312515
547.1691801,6041294.12486675
545.2153222000001,6041644.76565317
543.2805745000001,6041519.894464791
541.3646685,6041377.992536924
539.46734,6041766.934292423
537.5883299,6041521.815401186
535.7273833,6041360.615365728
533.8842498,6041452.595301433
532.0586836,6041401.472399248
530.2504428000001,6041162.3271239875
528.45929,6041043.003941476
526.6849915,6041401.199646335
524.927318,6041686.266512543
523.186044,6041698.111927994
521.4609475999999,6041202.439647709
519.7518110000001,6041605.8745738575
518.0584200000001,6041769.554867582
516.3805639,6041391.151870763
514.7180356,6041644.113367109
513.0706316000001,6041698.985111368
511.43815149999995,6041269.265296436
509.82039860000003,6041395.960283305
508.2171791999999,6041448.706354217
506.628303,6041356.85021548
505.05358269999994,6041578.981938064
503.4928341,6041580.790595553
501.9458762,6041572.700528479
500.41253059999997,6041269.869467982
498.8926222,6041736.817209225
497.3859785,6040969.761953851
495.89242989999997,6041551.464241298
494.4118094,6041430.351324152
492.943953,6041837.898053944
491.488699,6040877.962191188
490.04588839999997,6041326.95535136
488.6153648,6041511.051386589
487.19697429999997,6041428.272688927
485.7905654,6041082.974970588
484.39598889999996,6041206.831139272
483.01309800000007,6041483.401503525
481.64174840000004,6041238.84533376
480.28179789999996,6041476.10934356
478.93310639999993,6041155.237849226
477.59553619999997,6041174.047479428
476.2689517,6041137.9070614735
474.9532192,6041605.283252222
473.6482074,6041204.562086983
472.35378679999997,6041245.333024595
471.06982989999995,6041567.809313231
469.79621110000005,6041474.537936363
468.53280700000005,6041412.454665283
467.2794956999999,6041535.039598603
466.0361575,6041114.070472362
464.80267410000005,6041279.499371869
463.5789295,6041383.678166067
462.364809,6035231.289723947
461.1601998,6016447.623706223
459.9649909,5980059.076667803
458.7790727,5922293.6944316225
457.6023374,5837777.081256107
456.4346788,5724188.12247341
455.2759921,5578809.528659501
454.12617439999997,5399695.475307312
452.9851239,5196973.90163174
451.85274060000006,4981673.5771372765
450.7289258,4761229.9930177145
449.6135822,4544714.594684969
448.5066141,4338098.650737296
447.407927,4148129.439468375
446.317428,3978739.4594690036
445.23502520000005,3834519.4065593686
444.1606283,3713289.363195287
443.0941482,3612001.298703277
442.03549699999996,3528259.63172235
440.9845882,3458189.944484557
439.9413364,3397467.9545114557
438.9056575,3340882.6069669165
437.87746860000004,3283013.6163054383
436.85668780000003,3217322.604601188
435.8432345,3137939.828254122
434.83702930000004,3040072.426471635
433.83799369999997,2919366.4144785437
432.84605039999997,2774797.7009201813
431.8611232,2607771.7414751323
430.8831369,2421020.0341263064
429.9120175,2220132.1675601327
428.94769169999995,2011438.2548095845
427.9900874,1802503.4898405087
427.03913370000004,1600416.7064710706
426.0947602,1410384.0962695337
425.1568978,1237795.3921486118
424.22547829999996,1085278.7993230612
423.3004343,954040.5435873192
422.3816994,844184.2735098102
421.4692081,753985.5964126582
420.56289569999996,681174.7131246013
419.66269850000003,623412.725361889
418.7685535,577278.5110349429
417.8803987,540410.6018593094
416.9981727,510364.96224302717
416.12181519999996,485158.40624100686
415.25126639999996,463394.046409473
414.38646760000006,443890.88961251866
413.5273605,425885.28009579796
412.673888,409015.8936989322
411.8259934,393242.2803834571
410.9836208,378255.08321267425
410.14671519999996,364261.75797583116
409.3152221,351010.07226073125
408.48908789999996,338549.11572349677
407.66825960000006,326773.28084170213
406.8526847,315503.2712074813
406.0423117,304640.9131721743
405.2370896,294079.8461211048
404.43696800000004,283715.1428336555
403.64189730000004,273594.043413066
402.8518283,263772.1099569255
402.0667126,254276.2705172192
401.28650239999996,245167.56528509772
400.5111505,236469.44549752303
399.7406101,227411.59485621148
398.9748353,218110.7405690561
398.2137806,208579.575830143
397.457401,198497.77754878593
396.7056521,187939.64414453157
395.9584903,176814.1049785923
395.2158722,165094.33231185345
394.4777551,152759.54940334713
393.7440968,141447.06977678562
393.0148555,130981.59964084864
392.2899901,121296.57854840855
391.56946,112827.62040246547
390.853225,105364.23608829145
390.1412452,98976.22218724947
389.43348169999996,93569.40946581903
388.7298955,89101.22634367102
388.03044839999995,84771.82253238099
387.3351027,80608.07357088487
386.6438209,76710.00995067308
385.95656610000003,72881.25086989609
385.2733019,69147.93298889813
384.5939922,65501.85423239586
383.9186014,62007.21867519226
383.2470943,58531.30635591071
382.5794362,55082.20242184381
381.9155926,51711.50315593553
381.2555296,48301.714364841486
380.59921360000004,44926.0308017396
379.9466115,41594.80873646507
379.29769039999996,38348.88057349709
378.652418,35176.72531841308
378.0107622,32303.11625024156
377.37269130000004,29677.40349243897
376.73817410000004,27317.562834692588
376.1071796,25188.02838633041
375.47967719999997,23291.67591998649
374.8556368,21605.637906491498
374.2350283,20110.240796480328
373.6178223,18777.18897012264
373.0039896,17503.393840496683
372.3935012,16340.304494367841
371.78632860000005,15244.361106314143
371.1824436,14235.511883463738
370.5818182,13296.805474512385
369.98442489999996,12407.38186072609
369.39023629999997,11580.345664593471
368.7992255,10825.663939049637
368.2113658,10108.081340296714
367.6266307,9408.145000688448
367.0449943,8746.611745626651
366.4664305,8111.045349866881
365.89091410000003,7514.467633556585
365.3184196,6947.390397592628
364.7489221,6402.649489450899
364.18239689999996,5852.916753086532
363.61881960000005,5268.85077066477
363.058166,4692.339521242336
362.50041219999997,4117.611619972498
361.94553460000003,3532.7733058683893
361.3935098,2955.78625961033
360.8443147,2388.437182317744
360.29792630000003,1822.901827279404
359.754322,1330.6398318846168
359.2134795,938.1653353848835
358.6753765,629.4695233766363
358.1399912,380.61100974038015
357.6073018,204.8723044907006
357.077287,86.56322324380942
356.5499253,19.152567985396537
356.025196,4.004486117140175
355.50307799999996,-1.2915889003973071
354.983551,1.1567425561521758
354.4665945,-2.5413074053138467
353.95218839999995,-3.9857507398800616
353.4403127,-2.2987717498938647
352.9309478,-3.1881987213948735
352.42407410000004,3.8362150865798124
351.9196722,-0.8014706808186621
351.4177232,2.4463235480734413
350.91820789999997,2.8308362181781614
350.4211078,-2.737085614030835
349.9264043,-1.8864389516909081
349.434079,-0.27148093632150244
348.9441137,0.6986386670988668
348.45649060000005,-2.0356010663981503
347.97119169999996,3.010942300346509
347.48819960000003,-2.697467557709302
347.0074967,0.6296161536789786
346.5290657,1.2280795621869456
346.0528897,0.5901185896131127
345.5789517,0.17492415776301048
345.1072349,1.42310545863353
344.6377228,0.8275827693807933
344.17039889999995,1.9027879074068084
343.70524710000007,-3.603989708013199
343.24225110000003,0.3941783503768386
342.7813952,-0.5126413426641443
342.32266339999995,-2.015350016280168
341.8660403,2.565055311337256
341.4115102,-0.8888409479108026
340.959058,2.9790410506071803
340.5086685,1.170927680008917
340.06032660000005,-2.709863412044144
339.6140175,5.003458609278465
339.1697264,2.2841030635744493
338.7274388,-1.7941455943927256
338.28714019999995,0.23969129439396644
337.8488164,-1.3921543223338382
337.41245310000005,2.378796250821323
336.9780363,2.8493981202907412
336.5455522,-0.29734639397186097
336.114987,-2.8307870494956604
335.686327,0.7036511308279657
335.2595588,-4.264981724045272
334.834669,-3.030949836529216
334.4116443,0.9763888497147768
333.9904716,2.9193167321713576
333.57113799999996,-2.7150255262253338
333.1536305,1.411870927493036
332.73793639999997,3.4655750151941382
332.32404310000004,-0.8611639597331658
331.91193799999996,-0.5622308916537883
331.5016088,-4.545642933111696
331.0930432,-2.3423544797628804
330.6862289,-7.359474805610933
330.281154,4.749432597915666
329.8778065,0.22685152754984386
329.47617460000004,-1.6822235162078034
329.07624649999997,4.178276442078731
328.6780106,-1.0324122240056464
328.2814555,3.0285707733213454
327.88656960000003,0.8092121274895271
327.4933418,2.0121572553647886
327.1017607,-0.514687673417044
326.7118154,0.4619581998741658
326.32349480000005,-0.4095084468856637
325.93678789999996,1.872297789134527
325.5516841,0.2966913673070652
325.16817260000005,-3.173110825069049
324.7862428,-0.05883007927252173
324.40588419999995,-3.243949181624084
324.0270864,-0.7646977243726206
323.649839,-3.0645050488507235
323.2741319,1.6661468103410766
322.8999548,-1.0576660937750348
322.5272977,2.9200674531687505
322.1561508,-0.8213222389041192
321.786504,2.3650927270300235
321.4183476,-1.9566208150861142
321.0516719,-1.9248394357258056
320.6864673,-0.5480158742744481
320.3227243,1.4506673555463758
319.96043330000003,-5.431600829484999
319.5995851,-0.6366726649572885
319.2401704,-0.2290456510638243
318.8821799,5.756391005490086
318.5256045,0.9254072593063278
318.1704352,-1.050956840819234
317.8166631,-0.7246800897097122
317.4642791,-2.9479734071279555
317.1132746,1.8065916726535076
316.76364069999994,-1.677128940963847
316.4153688,0.9879157023885402
316.06845039999996,0.5066492493998429
315.72287689999996,-2.8549761539221654
315.37863980000003,3.0343091999786465
315.0357308,-0.13636597049051696
314.6941415,1.8666685291585443
314.3538639,-2.1119574598571558
314.0148896,-0.24734840761624366
313.6772106,0.9227092733724428
313.3408189,0.4981179395365419
313.00570639999995,-1.0790852990018298
312.67186549999997,-0.06288482628766201
312.33928810000003,0.7611127047847798
312.0079665,1.8386021627666305
311.6778931,1.4613137926563058
311.34906010000003,-4.582302771735588
311.0214601,1.53006711802135
310.6950856,1.417236368397589
310.369929,-0.5736752548576868
310.04598300000004,0.5608558911754178
309.7232403,-2.493511478405652
309.4016935,4.6736608988016055
309.0813356,5.578226249032832
308.7621594,-3.391220262913411
308.4441577,-2.4253631526508768
308.1273236,-1.777495481851328
307.8116501,1.6084475668838798
307.49713019999996,-1.8792237420383755
307.18375710000004,1.1066606258333582
306.871524,-0.4193295032311528
306.5604242,-3.4875280030211253
306.2504509,-3.997219652809169
