wave,flux
1817.164934,3.7785058862825984
1790.1022050000001,18.09889690349864
1763.812741,16.829081881169913
1738.2646949999998,27.874752636640743
1713.427949,21.6305955303056
1689.273995,1026.2258150229243
1665.7758310000002,3209.5160990729723
1642.907862,6612.2494174577905
1620.64581,11204.931751256952
1598.9666300000001,16982.93897428605
1577.8484310000001,23888.582077616684
1557.270407,31999.30835651064
1537.212767,41222.989688424335
1517.65668,49873.77127292932
1498.5842089999999,57367.823369500555
1479.978265,63884.09659050838
1461.822555,69350.06148292523
1444.101535,73765.37112201721
1426.800368,77167.64065169875
1409.904887,79770.32773476778
1393.401553,81302.3711355626
1377.2774220000001,82800.21543965871
1361.520115,84309.44980463629
1346.117782,85971.65625387675
1331.059081,87724.41977792588
1316.3331449999998,89501.45445820624
1301.92956,91395.98406007217
1287.838342,93354.98738556633
1274.049912,95171.19189366726
1260.5550779999999,97066.01900182756
1247.345017,98863.08310001227
1234.4112519999999,100665.34162975312
1221.74564,102341.34148356062
1209.340352,104063.9678662277
1197.187859,105692.78210686221
1185.28092,107339.01149607307
1173.612564,109071.05925349556
1162.1760800000002,110826.27995940649
1150.9650060000001,112596.54418422641
1139.973115,114391.08661937401
1129.194406,116243.56026350043
1118.623093,118209.40215738
1108.253594,120183.6137448225
1098.0805269999998,122153.08071370074
1088.098695,124357.68300318606
1078.303081,126725.66501935926
1068.688841,129395.95054795033
1059.251295,132679.99775830627
1049.9859199999999,136692.4889231899
1040.8883449999998,141704.33335503118
1031.9543429999999,148041.98346688368
1023.1798259999999,155770.8404538339
1014.5608390000001,164675.85394499367
1006.0935529999999,175243.198745047
997.774265,186640.01999908805
989.5993858999999,198971.05382216445
981.5654412999999,211708.1609344517
973.6690651,224360.66468417985
965.9069952,236390.78601632835
958.2760697000001,247415.56221308987
950.7732231000001,256894.5827447349
943.3954827,265221.17079092783
936.1399648,271704.85516086314
929.0038716,276629.2860226323
921.9844879000001,279879.85708047764
915.0791782,281879.70495850954
908.2853836000002,283763.8474857107
901.6006193,285280.4893225675
895.0224714,287840.55880110845
888.548595,291480.4388556562
882.1767113,297633.3699168977
875.9046055,306494.8034612565
869.7301242999998,319262.24955348443
863.6511742999999,336172.3030737926
857.6657193,357677.1904342312
851.7717787,384631.5019090429
845.9674256000001,419057.59566701204
840.2507849,461516.38053449977
834.6200316000001,511361.08030939964
829.0733892000001,569880.4688534429
823.6091279,638229.673341627
818.2255633999999,713812.1488194091
812.9210552000001,795648.5491901515
807.694005,880784.5309270325
802.5428559,964352.9468167907
797.4660904,1046400.1880644616
792.4622299,1128553.101731676
787.5298327,1215587.1841211454
782.6674933999999,1312063.8695832395
777.8738417999999,1427449.0711384462
773.1475413,1575531.8007208894
768.4872882999999,1772293.1117116963
763.8918112000001,2031691.1850497262
759.3598692,2350606.695340069
754.8902515999999,2728057.88268069
750.4817767999999,3150360.7064872743
746.1332914,3602832.2747170767
741.8436694000001,4067347.172444449
737.6118116,4518554.6484727515
733.4366444,4923327.312116922
729.3171195,5267621.3766587125
725.2522127999999,5535553.47920812
721.2409241,5738892.784327922
717.282276,5880801.278371937
713.3753136,5970782.7009625025
709.5191037000001,6015759.20302894
705.7127343,6038013.9126692675
701.9553139,6043281.0420795465
698.2459709,6039058.222539114
694.5838534,6040958.318716092
690.9681281000001,6042568.02235066
687.3979803,6042795.069704322
683.8726131,6041429.493080122
680.3912472999999,6041856.65407664
676.9531202000001,6040437.180510001
673.557486,6040402.307660355
670.2036149,6041831.382888054
666.8907926,6040343.692912696
663.6183202999999,6039317.835885715
660.3855139,6044108.161973532
657.1917038,6037689.247500226
654.0362346,6044524.707504599
650.9184646000001,6039111.228017
647.8377654,6041704.558867982
644.7935217999999,6040993.62965071
641.7851312999999,6043303.233229704
638.8120038,6041953.659022608
635.8735614,6041318.2934524575
632.9692378999999,6040033.483338776
630.0984786,6041678.725965375
627.2607402000001,6041259.842302073
624.4554901,6041159.757061282
621.6822068,6042915.549738181
618.940379,6040910.113632764
616.2295054,6040765.6846880615
613.549095,6041508.873486537
610.8986664,6040908.08330527
608.2777476,6041801.353234339
605.6858758999999,6041779.867037882
603.1225977000001,6041350.102825869
600.5874682,6041363.665866823
598.0800512,6041044.229820731
595.5999188999999,6040859.374935235
593.1466518,6041335.200753353
590.7198384999999,6040932.810615977
588.3190752,6041156.319381598
585.943966,6041468.853107455
583.5941226,6041837.078633549
581.2691637,6041275.717699138
578.9687155,6041245.461053607
576.692411,6041279.840057115
574.4398902,6041562.081637279
572.2107997,6041180.083546151
570.0047927,6041369.057250625
567.8215287,6041705.477985282
565.6606737000001,6041200.210909273
563.5218996,6041552.702378162
561.4048845,6041408.993099458
559.3093121,6041589.38797366
557.2348721,6041759.174362772
555.1812597,6041532.225594721
553.1481756000001,6041361.199654556
551.1353259,6041567.6661922475
549.1424218999999,6041448.266113824
547.1691801,6041813.832782717
545.2153222000001,6041455.351887923
543.2805745000001,6041624.288462286
541.3646685,6040986.403483946
539.46734,6041411.224052846
537.5883299,6041709.26811013
535.7273833,6041322.058222578
533.8842498,6041209.553944067
532.0586836,6041265.432402927
530.2504428000001,6041444.190600864
528.45929,6041261.738918723
526.6849915,6041495.190412923
524.927318,6041526.096491215
523.186044,6041641.644562276
521.4609475999999,6041323.390299942
519.7518110000001,6041245.165374229
518.0584200000001,6041657.90743945
516.3805639,6041456.025364622
514.7180356,6041700.259635952
513.0706316000001,6041661.063644666
511.43815149999995,6041701.545875533
509.82039860000003,6041229.815751958
508.2171791999999,6041623.391777571
506.628303,6041228.8915628
505.05358269999994,6041437.955212182
503.4928341,6041481.268682834
501.9458762,6041241.998672691
500.41253059999997,6041105.824709512
498.8926222,6041330.065108647
497.3859785,6041302.212058948
495.89242989999997,6041434.187176587
494.4118094,6041680.444574407
492.943953,6041388.3434793325
491.488699,6040880.340354115
490.04588839999997,6041488.207163529
488.6153648,6041532.308120311
487.19697429999997,6041533.9643942425
485.7905654,6041649.7004216565
484.39598889999996,6041740.29626212
483.01309800000007,6041396.996314466
481.64174840000004,6040747.98870369
480.28179789999996,6041521.500930318
478.93310639999993,6041316.533137428
477.59553619999997,6041152.090020559
476.2689517,6041405.615646157
474.9532192,6041373.6714273235
473.6482074,6041266.93138312
472.35378679999997,6041728.057937812
471.06982989999995,6041423.06625322
469.79621110000005,6041186.260937969
468.53280700000005,6041219.580555735
467.2794956999999,6040992.403639269
466.0361575,6041051.269173482
464.80267410000005,6041444.360423859
463.5789295,6041555.6868728325
462.364809,6041213.356625985
461.1601998,6041040.965093109
459.9649909,6041503.509494449
458.7790727,6041524.241354961
457.6023374,6041424.969044366
456.4346788,6041485.631243218
455.2759921,6041364.09929939
454.12617439999997,6041030.676073778
452.9851239,6041431.50234924
451.85274060000006,6041110.4337200625
450.7289258,6041381.038130012
449.6135822,6041430.630836535
448.5066141,6041553.427546715
447.407927,6041586.979866716
446.317428,6041363.549314507
445.23502520000005,6041834.6960525075
444.1606283,6041042.690797578
443.0941482,6041440.388906977
442.03549699999996,6041490.339831378
440.9845882,6041155.6771984575
439.9413364,6040888.870194823
438.9056575,6041602.958786399
437.87746860000004,6041723.523481443
436.85668780000003,6041173.506685069
435.8432345,6041644.009676462
434.83702930000004,6041596.254581047
433.83799369999997,6041362.763524562
432.84605039999997,6041207.855902663
431.8611232,6041380.769409087
430.8831369,6040863.390269867
429.9120175,6041352.757779445
428.94769169999995,6041362.6773187425
427.9900874,6041030.404208225
427.03913370000004,6041327.821114178
426.0947602,6041409.436018468
425.1568978,6041355.85678517
424.22547829999996,6041401.222246733
423.3004343,6041658.054486694
422.3816994,6041965.501777522
421.4692081,6041411.765918182
420.56289569999996,6041290.01663891
419.66269850000003,6041148.095852992
418.7685535,6041365.237432451
417.8803987,6041480.871310834
416.9981727,6041359.501900551
416.12181519999996,6041618.000098681
415.25126639999996,6041163.812242543
414.38646760000006,6041723.504783417
413.5273605,6041957.354988357
412.673888,6041946.462115352
411.8259934,6041529.203946345
410.9836208,6041316.359379098
410.14671519999996,6037154.182808585
409.3152221,6021044.283821654
408.48908789999996,5985750.877223289
407.66825960000006,5921361.1832962185
406.8526847,5820752.515210141
406.0423117,5675442.339082825
405.2370896,5477467.430201565
404.43696800000004,5221196.084425899
403.64189730000004,4907669.765895687
402.8518283,4547758.71653818
402.0667126,4153562.987139525
401.28650239999996,3737968.6349997474
400.5111505,3315831.1801057025
399.7406101,2901489.782838678
398.9748353,2507512.035041411
398.2137806,2146893.6993057183
397.457401,1826354.6460830388
396.7056521,1547017.100805091
395.9584903,1309624.276296664
395.2158722,1110868.9552849513
394.4777551,947370.2771198966
393.7440968,814952.1880579083
393.0148555,709492.839617189
392.2899901,625545.2053792982
391.56946,559090.7266979198
390.853225,506197.12961802975
390.1412452,464014.70755606255
389.43348169999996,429727.8394673817
388.7298955,401668.9320569472
388.03044839999995,377987.4814760969
387.3351027,357655.1614574847
386.6438209,340068.01290597126
385.95656610000003,324688.69124021125
385.2733019,311162.9341086262
384.5939922,299167.5211905246
383.9186014,288474.1718114381
383.2470943,278997.9054289495
382.5794362,270409.1571291634
381.9155926,262807.238322358
381.2555296,255709.6678228168
380.59921360000004,249193.1037254136
379.9466115,243001.8342170648
379.29769039999996,237015.7782052749
378.652418,231098.31471039946
378.0107622,225266.92027209644
377.37269130000004,219414.75103743628
376.73817410000004,213475.08113148576
376.1071796,207383.74930211547
375.47967719999997,201193.66586958047
374.8556368,194830.38772468246
374.2350283,188400.47111220285
373.6178223,181862.4761467304
373.0039896,175342.90251369364
372.3935012,168714.9283893051
371.78632860000005,162103.09557231588
371.1824436,155521.21641001696
370.5818182,148997.78118110506
369.98442489999996,142525.41629461024
369.39023629999997,136159.43747257715
368.7992255,129908.7092530356
368.2113658,123839.28761085348
367.6266307,117978.56667570726
367.0449943,112352.91044528762
366.4664305,107010.27277848193
365.89091410000003,101959.0188278042
365.3184196,97168.50720332448
364.7489221,92728.02524412307
364.18239689999996,88542.09613780954
363.61881960000005,84603.50507813638
363.058166,80827.97138951186
362.50041219999997,77209.04751888372
361.94553460000003,73796.48185311555
361.3935098,70487.65092729412
360.8443147,67297.82461597829
360.29792630000003,64168.86410215579
359.754322,61156.212686533916
359.2134795,58325.19124098501
358.6753765,55654.64917362373
358.1399912,53179.526755930165
357.6073018,50805.5492826988
357.077287,48581.322913161006
356.5499253,46465.344567579166
356.025196,44495.211542407305
355.50307799999996,42623.040319612235
354.983551,40764.59289088041
354.4665945,38940.089832559504
353.95218839999995,37080.16175695456
353.4403127,35222.80616775181
352.9309478,33367.535278824136
352.42407410000004,31548.93793140004
351.9196722,29748.7175807118
351.4177232,27972.309373347754
350.91820789999997,26240.90864105821
350.4211078,24532.942585544835
349.9264043,22883.079135590957
349.434079,21282.79594915698
348.9441137,19719.23320865734
348.45649060000005,18155.95620978433
347.97119169999996,16569.443704738664
347.48819960000003,14951.003456402232
347.0074967,13296.626472889173
346.5290657,11657.396995443132
346.0528897,10048.155458055257
345.5789517,8479.682023753572
345.1072349,6977.175333677978
344.6377228,5569.165797269395
344.17039889999995,4244.149700491917
343.70524710000007,3119.2296176932746
343.24225110000003,2206.5961711637883
342.7813952,1481.9587136178495
342.32266339999995,932.2826072784843
341.8660403,525.8700133915281
341.4115102,243.81766562467286
340.959058,87.70874351811851
340.5086685,25.672804869688395
340.06032660000005,6.421569801037284
339.6140175,1.1707592575419563
339.1697264,0.9834326382151634
338.7274388,-0.5780841374382004
338.28714019999995,-2.328459980562502
337.8488164,1.5533995364696664
337.41245310000005,2.424034446871904
336.9780363,1.6949265835759917
336.5455522,1.135870939745605
336.114987,-4.479630990630874
335.686327,0.5168708162086145
335.2595588,-1.4753810713760802
334.834669,-3.2978543128407884
334.4116443,1.2211038224051292
333.9904716,-4.594246586812132
333.57113799999996,-0.16789833958353947
333.1536305,0.180803624999348
332.73793639999997,1.2027003124329418
332.32404310000004,2.6325025257090013
331.91193799999996,1.1481685080316029
331.5016088,3.6493401550167834
331.0930432,-1.6992296590781306
330.6862289,2.2751485446931943
330.281154,-3.0869577088129283
329.8778065,-3.762683578867976
329.47617460000004,3.336561954273471
329.07624649999997,0.023517090446283192
328.6780106,-2.189879744370916
328.2814555,-3.481322468660431
327.88656960000003,4.297475120287674
327.4933418,0.16410493304314408
327.1017607,-0.4756644384236854
326.7118154,-0.5569613401495876
326.32349480000005,-1.5854067690347695
325.93678789999996,-4.296201720891107
325.5516841,-0.7702778429447337
325.16817260000005,0.058785906423088924
324.7862428,1.1896130237970668
324.40588419999995,-0.489901580364303
324.0270864,-1.2755628178211695
323.649839,2.1566648361707643
323.2741319,-3.0948854903205514
322.8999548,2.4898556945285524
322.5272977,1.4658047226218467
322.1561508,-0.34430215815639337
321.786504,-0.9533061244774652
321.4183476,-3.096386541180081
321.0516719,1.8839947137695916
320.6864673,-1.4109719926014208
320.3227243,-4.002479490068488
319.96043330000003,-2.2321068858909316
319.5995851,1.132921805412665
319.2401704,1.4862532793767165
318.8821799,-3.022390162057416
318.5256045,2.6459481229473343
318.1704352,4.2742218151522815
317.8166631,-2.5254384899505093
317.4642791,1.7245638959216432
317.1132746,0.14974787407776993
316.76364069999994,2.6576061679084773
316.4153688,-2.534845618602401
316.06845039999996,1.3511045161163844
315.72287689999996,1.8678495897761185
315.37863980000003,0.5787266835635337
315.0357308,2.3227076434007765
314.6941415,2.111638213250679
314.3538639,-2.1652177604108616
314.0148896,0.8933345668653239
313.6772106,-0.5501172056501544
313.3408189,-3.637288442267245
313.00570639999995,-2.0746771401266386
312.67186549999997,2.504491758203308
312.33928810000003,0.3514997832861766
312.0079665,1.0507300429271036
311.6778931,-2.550360696032477
311.34906010000003,0.7205174176206973
311.0214601,0.05368966043647257
310.6950856,0.08633705128330461
310.369929,4.518411868315881
310.04598300000004,-4.637275750908963
309.7232403,-1.0895500937214897
309.4016935,0.4099265368531774
309.0813356,-1.2694345372913478
308.7621594,-0.28225454958498786
308.4441577,3.8316206235007217
308.1273236,3.0970194877377715
307.8116501,-2.6790599522253022
307.49713019999996,-3.2302920520170253
307.18375710000004,2.638207110236874
306.871524,2.545536495531445
306.5604242,-0.2103249000619739
306.2504509,-1.3749625397390894
