wave,flux
1817.164934,-9.945599879440634
1790.1022050000001,-24.230363623105145
1763.812741,18.450906696690193
1738.2646949999998,54.04211462282301
1713.427949,131.26676865844595
1689.273995,817.4695434583583
1665.7758310000002,2610.136320911909
1642.907862,5441.750379042393
1620.64581,9544.13513449395
1598.9666300000001,14853.55117177748
1577.8484310000001,21458.437654715224
1557.270407,29348.950658427548
1537.212767,38531.99737272661
1517.65668,48121.123421888806
1498.5842089999999,57198.930190873
1479.978265,65825.58176064969
1461.822555,73909.3218912204
1444.101535,81407.84147002593
1426.800368,88182.47326367242
1409.904887,94314.34701126989
1393.401553,99659.85966005897
1377.2774220000001,104553.58830525566
1361.520115,109421.17898179452
1346.117782,114261.40775447231
1331.059081,119043.96533638796
1316.3331449999998,123703.67005979856
1301.92956,128327.921956904
1287.838342,132872.70587471605
1274.049912,137360.83469618438
1260.5550779999999,141876.95029994118
1247.345017,146501.29688684508
1234.4112519999999,151044.6021748749
1221.74564,155638.7993807728
1209.340352,160359.76807612277
1197.187859,164935.05787995635
1185.28092,169763.31516261026
1173.612564,174411.34869767865
1162.1760800000002,179215.09021372072
1150.9650060000001,183904.74522613632
1139.973115,188551.79126367712
1129.194406,193107.088152776
1118.623093,197692.867733384
1108.253594,202233.83590096646
1098.0805269999998,206795.568894022
1088.098695,211277.31642325144
1078.303081,215850.44848808632
1068.688841,220985.2856133775
1059.251295,226392.25105181197
1049.9859199999999,232822.2553782768
1040.8883449999998,239801.49390619644
1031.9543429999999,248108.41278846344
1023.1798259999999,257827.9065298069
1014.5608390000001,269070.17992691114
1006.0935529999999,281600.5677871471
997.774265,295693.20083789603
989.5993858999999,310348.9148108323
981.5654412999999,326312.6497185353
973.6690651,342169.2302342752
965.9069952,358032.3416937587
958.2760697000001,373170.7973289672
950.7732231000001,387949.9875185667
943.3954827,401569.9436641503
936.1399648,414305.37584396586
929.0038716,425517.8925783336
921.9844879000001,436124.14976538
915.0791782,445720.3449560699
908.2853836000002,454209.0840056378
901.6006193,462972.53411291994
895.0224714,472203.2121310132
888.548595,482420.45407468727
882.1767113,495082.90147071396
875.9046055,509972.54777765396
869.7301242999998,527897.3209394113
863.6511742999999,548355.3537873154
857.6657193,576244.8907817971
851.7717787,607892.3132557014
845.9674256000001,645919.6156069777
840.2507849,693578.6475909769
834.6200316000001,747776.356872607
829.0733892000001,811106.8169601363
823.6091279,885986.7890477973
818.2255633999999,965892.0129593895
812.9210552000001,1055935.1058907479
807.694005,1153325.275837839
802.5428559,1250302.443248128
797.4660904,1353571.960667953
792.4622299,1460542.6226986297
787.5298327,1571759.6046558013
782.6674933999999,1698084.729058852
777.8738417999999,1846324.21851824
773.1475413,2026230.5077138986
768.4872882999999,2256782.948655411
763.8918112000001,2536551.9776793304
759.3598692,2864845.814593608
754.8902515999999,3241217.10038144
750.4817767999999,3644399.5349321617
746.1332914,4065178.623768381
741.8436694000001,4482539.161730768
737.6118116,4873677.4647675855
733.4366444,5209763.970956692
729.3171195,5484301.43096299
725.2522127999999,5695617.921002277
721.2409241,5844833.268894998
717.282276,5949361.7989976425
713.3753136,6011820.322829908
709.5191037000001,6034552.415860856
705.7127343,6038659.8088797275
701.9553139,6040462.319277146
698.2459709,6041146.8019306995
694.5838534,6044395.855761417
690.9681281000001,6043758.386571864
687.3979803,6042516.987286401
683.8726131,6041051.190982624
680.3912472999999,6041932.720661021
676.9531202000001,6043668.975283513
673.557486,6040722.928821848
670.2036149,6039317.72057588
666.8907926,6039320.174814897
663.6183202999999,6040207.741019488
660.3855139,6040985.536006059
657.1917038,6043730.413075792
654.0362346,6041656.740124429
650.9184646000001,6040259.087168641
647.8377654,6042979.85159035
644.7935217999999,6039619.53135647
641.7851312999999,6041541.177508084
638.8120038,6042116.975825668
635.8735614,6041559.143269971
632.9692378999999,6039538.798174348
630.0984786,6042451.792053647
627.2607402000001,6040201.186574072
624.4554901,6039592.4236183865
621.6822068,6043277.815191515
618.940379,6041593.276759602
616.2295054,6041682.91294874
613.549095,6041586.433138434
610.8986664,6041460.953383688
608.2777476,6041282.410703481
605.6858758999999,6041423.5897658635
603.1225977000001,6041290.6896342365
600.5874682,6041390.2989941975
598.0800512,6041381.625181133
595.5999188999999,6041721.335473867
593.1466518,6041750.005927033
590.7198384999999,6041495.921792902
588.3190752,6041620.583378493
585.943966,6041099.38119287
583.5941226,6041358.874534765
581.2691637,6041237.652407032
578.9687155,6041519.34070559
576.692411,6041542.050628242
574.4398902,6041464.026369945
572.2107997,6041360.244328705
570.0047927,6041221.095597749
567.8215287,6041594.782503463
565.6606737000001,6041473.148816372
563.5218996,6041368.13467028
561.4048845,6041663.859909092
559.3093121,6041269.286516061
557.2348721,6042022.206708171
555.1812597,6041611.937952525
553.1481756000001,6041197.830983788
551.1353259,6041399.598870927
549.1424218999999,6041356.538678817
547.1691801,6041208.460528274
545.2153222000001,6041801.049753987
543.2805745000001,6041582.789554803
541.3646685,6041755.42851602
539.46734,6041584.86177531
537.5883299,6041437.320962543
535.7273833,6041491.605306514
533.8842498,6041384.892421269
532.0586836,6040916.183325654
530.2504428000001,6041477.279587152
528.45929,6041586.792612777
526.6849915,6041420.56242868
524.927318,6041344.652403409
523.186044,6041535.578900351
521.4609475999999,6041200.933896856
519.7518110000001,6041239.451497497
518.0584200000001,6041418.191234591
516.3805639,6041078.462641643
514.7180356,6041372.386259181
513.0706316000001,6041482.4418469835
511.43815149999995,6041525.983663881
509.82039860000003,6041442.698385164
508.2171791999999,6041501.97609526
506.628303,6041355.0972392475
505.05358269999994,6041126.002304314
503.4928341,6041631.577567388
501.9458762,6041477.170548395
500.41253059999997,6041386.520445063
498.8926222,6041388.502970181
497.3859785,6041563.735843463
495.89242989999997,6041466.742324762
494.4118094,6041194.44236285
492.943953,6041401.119461161
491.488699,6041396.881734615
490.04588839999997,6041311.68670843
488.6153648,6041430.978273895
487.19697429999997,6041569.39365124
485.7905654,6041108.952443668
484.39598889999996,6041522.560261047
483.01309800000007,6041191.854473724
481.64174840000004,6041087.821612846
480.28179789999996,6041283.8614662
478.93310639999993,6041476.517102545
477.59553619999997,6041354.851214934
476.2689517,6041292.130847627
474.9532192,6041357.221780775
473.6482074,6041365.086239313
472.35378679999997,6041262.7703785235
471.06982989999995,6041416.102467978
469.79621110000005,6041530.928815489
468.53280700000005,6041481.485733477
467.2794956999999,6040974.353493923
466.0361575,6041298.160844183
464.80267410000005,6041890.746336337
463.5789295,6041169.062992474
462.364809,6041608.817215882
461.1601998,6041556.375254902
459.9649909,6042000.932126005
458.7790727,6041335.97271554
457.6023374,6041351.706992318
456.4346788,6041067.56567791
455.2759921,6041190.785305715
454.12617439999997,6041352.566663488
452.9851239,6041612.19161792
451.85274060000006,6041285.368477073
450.7289258,6041916.184523538
449.6135822,6041478.020709674
448.5066141,6041407.845726968
447.407927,6041349.487760607
446.317428,6041443.294520873
445.23502520000005,6040772.032837165
444.1606283,6041325.653672977
443.0941482,6041583.987738145
442.03549699999996,6041144.533867404
440.9845882,6041185.560420795
439.9413364,6041140.43288609
438.9056575,6041445.112437605
437.87746860000004,6040636.640109372
436.85668780000003,6038832.754097425
435.8432345,6035083.964558851
434.83702930000004,6026357.7801336935
433.83799369999997,6013625.444182069
432.84605039999997,5993769.963552499
431.8611232,5966245.946149092
430.8831369,5928038.733263613
429.9120175,5878312.109336467
428.94769169999995,5816981.242101292
427.9900874,5744221.603459992
427.03913370000004,5661139.685992309
426.0947602,5568254.02926311
425.1568978,5467371.510519909
424.22547829999996,5360394.069249895
423.3004343,5249737.463984607
422.3816994,5138557.541111472
421.4692081,5026808.236404841
420.56289569999996,4915230.644900603
419.66269850000003,4803200.418542688
418.7685535,4691040.245176506
417.8803987,4577805.3936932115
416.9981727,4461841.809024695
416.12181519999996,4343246.859123274
415.25126639999996,4221582.84477735
414.38646760000006,4097960.0374582936
413.5273605,3972744.402318445
412.673888,3848942.566765077
411.8259934,3727895.5192164485
410.9836208,3611797.9504455267
410.14671519999996,3501602.7894577533
409.3152221,3398424.375416868
408.48908789999996,3301724.449141053
407.66825960000006,3210594.6500309543
406.8526847,3124083.073933956
406.0423117,3039956.307373018
405.2370896,2957633.4341152636
404.43696800000004,2875087.8779131905
403.64189730000004,2791557.9555264227
402.8518283,2707079.8696950004
402.0667126,2622202.621981352
401.28650239999996,2537660.2952420483
400.5111505,2455370.006142724
399.7406101,2376627.977928794
398.9748353,2303773.532950366
398.2137806,2238176.2671355773
397.457401,2181709.149125824
396.7056521,2134911.381981417
395.9584903,2097851.407537344
395.2158722,2069857.00756954
394.4777551,2048797.7960447338
393.7440968,2032605.40588912
393.0148555,2018583.1448914784
392.2899901,2003434.101280145
391.56946,1983931.108800664
390.853225,1958024.516386251
390.1412452,1923757.968690403
389.43348169999996,1880502.8620213037
388.7298955,1828092.5195976247
388.03044839999995,1767915.8027563759
387.3351027,1700459.7290620469
386.6438209,1628081.8358447638
385.95656610000003,1552780.3724677474
385.2733019,1475531.2091638562
384.5939922,1397561.562038117
383.9186014,1319505.484356127
383.2470943,1242056.383343437
382.5794362,1164763.1203557437
381.9155926,1087389.6592324965
381.2555296,1010048.5247480748
380.59921360000004,932341.5803476772
379.9466115,854989.0378597951
379.29769039999996,778284.7630530448
378.652418,703204.5005539033
378.0107622,630390.5654131145
377.37269130000004,561283.1617216044
376.73817410000004,496666.2816456775
376.1071796,437405.7241480231
375.47967719999997,384104.45464729046
374.8556368,337023.9205276246
374.2350283,296312.55565721024
373.6178223,261428.0872768813
373.0039896,232226.91197242387
372.3935012,207951.0837096169
371.78632860000005,187925.97824762028
371.1824436,171525.98053226198
370.5818182,158028.41571058778
369.98442489999996,146713.9140053506
369.39023629999997,137286.89283734956
368.7992255,129251.36511181427
368.2113658,122361.88474554707
367.6266307,116251.93228685526
367.0449943,110739.04384661852
366.4664305,105827.75300998476
365.89091410000003,101341.55194921432
365.3184196,97248.0162560805
364.7489221,93421.36877575147
364.18239689999996,89809.2378334665
363.61881960000005,86395.83593398775
363.058166,83215.02903811102
362.50041219999997,80246.75075394765
361.94553460000003,77422.72010342771
361.3935098,74725.51299026744
360.8443147,72124.70523757082
360.29792630000003,69598.98152955009
359.754322,67168.22697035567
359.2134795,64728.93589586657
358.6753765,62296.896869278055
358.1399912,59842.476337982014
357.6073018,57381.94934358808
357.077287,54891.60883050141
356.5499253,52374.40643934293
356.025196,49917.29474072387
355.50307799999996,47521.589048077665
354.983551,45207.56094247168
354.4665945,42957.80117097858
353.95218839999995,40766.81065709258
353.4403127,38679.5755038953
352.9309478,36690.801069920664
352.42407410000004,34809.666722416456
351.9196722,32981.166596030685
351.4177232,31233.820001253447
350.91820789999997,29567.661249672754
350.4211078,28019.653258341383
349.9264043,26596.78785156627
349.434079,25243.37012776022
348.9441137,23967.430457690927
348.45649060000005,22776.79099056412
347.97119169999996,21670.606994151785
347.48819960000003,20628.28800479754
347.0074967,19624.13805272255
346.5290657,18641.85914621377
346.0528897,17691.565007926012
345.5789517,16773.143771150404
345.1072349,15914.430008006031
344.6377228,15105.391454809387
344.17039889999995,14301.008702334932
343.70524710000007,13541.400335922886
343.24225110000003,12832.265344375293
342.7813952,12152.70549876056
342.32266339999995,11521.14704760963
341.8660403,10923.335533695345
341.4115102,10347.400900882933
340.959058,9812.534238378024
340.5086685,9331.33400584141
340.06032660000005,8875.486362373083
339.6140175,8443.532644108805
339.1697264,8026.777303123079
338.7274388,7612.519529168455
338.28714019999995,7188.403196425788
337.8488164,6753.598878042169
337.41245310000005,6302.985203968822
336.9780363,5836.179228626619
336.5455522,5359.914016360461
336.114987,4893.778912958897
335.686327,4428.354866145839
335.2595588,3998.584701039978
334.834669,3590.9068274921137
334.4116443,3220.9853965873217
333.9904716,2888.8854464887468
333.57113799999996,2594.4186379399594
333.1536305,2319.2598625394703
332.73793639999997,2052.8094224200327
332.32404310000004,1800.5993652975085
331.91193799999996,1552.730605482771
331.5016088,1326.0130167099042
331.0930432,1109.900601697665
330.6862289,900.3608974389242
330.281154,709.3488615550284
329.8778065,529.0702611597529
329.47617460000004,373.9905356959465
329.07624649999997,262.2162177866261
328.6780106,172.5934355895104
328.2814555,103.13422479659329
327.88656960000003,55.69353150519228
327.4933418,23.641963223236285
327.1017607,7.256785469700843
326.7118154,0.010869592049312142
326.32349480000005,-4.40542901749617
325.93678789999996,2.62274719931657
325.5516841,-0.8295813193298618
325.16817260000005,-3.755938704501135
324.7862428,-0.8272033056517383
324.40588419999995,-1.4898996146917758
324.0270864,0.615952930199823
323.649839,-3.819064882295015
323.2741319,0.052566269161841934
322.8999548,-1.4862593150362533
322.5272977,1.3014663867938223
322.1561508,-1.3550576819185671
321.786504,1.4137792825467903
321.4183476,-1.6322378198495908
321.0516719,-1.6049153227425266
320.6864673,0.98002725943376
320.3227243,0.6977348719588337
319.96043330000003,-0.7286777904757892
319.5995851,-3.553574577974256
319.2401704,0.7284885000800797
318.8821799,2.7380981281831978
318.5256045,-2.4699658693255246
318.1704352,0.3048563734554273
317.8166631,-0.9456543535827008
317.4642791,1.3364531492190002
317.1132746,3.9904808617301732
316.76364069999994,-3.9499153981087263
316.4153688,2.6010423586891247
316.06845039999996,-0.954859802911418
315.72287689999996,-3.8477716745071993
315.37863980000003,-1.5919500909124684
315.0357308,3.7677402332625793
314.6941415,4.3313313203726
314.3538639,1.2484526676490204
314.0148896,0.4534042834849495
313.6772106,-7.298181438710119
313.3408189,-1.010190340952905
313.00570639999995,4.3278007241012295
312.67186549999997,-1.7973409346373292
312.33928810000003,2.23640381444071
312.0079665,-3.3929806005582885
311.6778931,-2.2205144590007384
311.34906010000003,-1.9456457013525128
311.0214601,-2.9854566072383686
310.6950856,1.8727296631988133
310.369929,-0.5134721390096092
310.04598300000004,1.0177515422265233
309.7232403,-2.9636796397330563
309.4016935,-3.009529729814364
309.0813356,-0.7206553810193648
308.7621594,-0.15584515806266636
308.4441577,1.3227032672192454
308.1273236,-2.204017091944951
307.8116501,-4.095987368303122
307.49713019999996,-0.22002531368422226
307.18375710000004,1.5267467914874944
306.871524,2.752230682767989
306.5604242,1.3692215923942543
306.2504509,2.4698638254641367
