wave,flux
1817.164934,-3.1701660446567614
1790.1022050000001,5.997372730651527
1763.812741,5.753388854727168
1738.2646949999998,18.970779090314867
1713.427949,49.505945017625024
1689.273995,178.71624197146375
1665.7758310000002,422.2481695380287
1642.907862,835.1664485791588
1620.64581,1412.8799160244732
1598.9666300000001,2197.81361383342
1577.8484310000001,3243.5925081965333
1557.270407,4553.403738847042
1537.212767,6140.701240371123
1517.65668,7932.50989094255
1498.5842089999999,9864.741911117253
1479.978265,11971.16945206789
1461.822555,14161.391540207216
1444.101535,16434.489800133768
1426.800368,18804.884249407445
1409.904887,21164.932070181232
1393.401553,23543.357913060423
1377.2774220000001,25880.79817413385
1361.520115,28263.58949563076
1346.117782,30636.43771231763
1331.059081,32973.555990923385
1316.3331449999998,35372.798749328904
1301.92956,37734.29340145814
1287.838342,40159.61851435655
1274.049912,42539.948883994904
1260.5550779999999,44952.43249018378
1247.345017,47434.077307850086
1234.4112519999999,49994.97016742906
1221.74564,52528.241095417274
1209.340352,55133.64655269959
1197.187859,57788.34785337065
1185.28092,60417.45245890513
1173.612564,63207.69254254744
1162.1760800000002,66050.71641813668
1150.9650060000001,68901.31129419137
1139.973115,71887.70498964157
1129.194406,74850.17921215715
1118.623093,77985.69799637508
1108.253594,81260.24283696065
1098.0805269999998,84517.25843043557
1088.098695,87909.96710323008
1078.303081,91452.41282050488
1068.688841,95046.40527491382
1059.251295,98906.95761518233
1049.9859199999999,102807.20619333789
1040.8883449999998,106712.08922068332
1031.9543429999999,111071.33933724088
1023.1798259999999,115617.53127139101
1014.5608390000001,120429.06070513658
1006.0935529999999,125463.50093646985
997.774265,130870.32221338652
989.5993858999999,136306.57576851652
981.5654412999999,142223.9077384761
973.6690651,148370.5028144102
965.9069952,154780.4714408001
958.2760697000001,161274.04029255814
950.7732231000001,168088.90765256627
943.3954827,174920.58718061578
936.1399648,181890.87941183566
929.0038716,188889.0764568665
921.9844879000001,195840.44732706712
915.0791782,203000.60537965005
908.2853836000002,209824.85711077863
901.6006193,216916.65577453226
895.0224714,223938.8200399614
888.548595,230980.6544915421
882.1767113,238286.2258428718
875.9046055,246093.03867726628
869.7301242999998,254202.61200867945
863.6511742999999,262950.9438518868
857.6657193,272226.0154979197
851.7717787,282648.4250057035
845.9674256000001,294211.87517161085
840.2507849,307383.7703650039
834.6200316000001,321643.3561618202
829.0733892000001,337610.3303592773
823.6091279,355422.7497962458
818.2255633999999,375281.10295325203
812.9210552000001,397483.3282732622
807.694005,420893.18059341627
802.5428559,446333.58682263596
797.4660904,474862.9615830382
792.4622299,503978.0105484511
787.5298327,537918.7973842447
782.6674933999999,573759.7796249057
777.8738417999999,615317.2051723284
773.1475413,663237.6097392677
768.4872882999999,720490.5278408786
763.8918112000001,787434.7545892509
759.3598692,867714.5776729321
754.8902515999999,959518.3329432859
750.4817767999999,1071914.1150799044
746.1332914,1195231.2131149892
741.8436694000001,1334638.363808013
737.6118116,1486842.8848322697
733.4366444,1653568.2095664255
729.3171195,1825698.1946532903
725.2522127999999,2009087.762547624
721.2409241,2203722.589974429
717.282276,2407177.18246352
713.3753136,2633577.910663704
709.5191037000001,2887909.1362075345
705.7127343,3170693.4665764486
701.9553139,3478499.08836206
698.2459709,3806892.033995455
694.5838534,4148341.997014143
690.9681281000001,4496654.889747754
687.3979803,4834820.808823312
683.8726131,5149744.083770742
680.3912472999999,5412328.828728032
676.9531202000001,5623599.80818475
673.557486,5782826.15963177
670.2036149,5898613.693660867
666.8907926,5977914.423104322
663.6183202999999,6021933.7268996835
660.3855139,6040231.832728129
657.1917038,6040851.431971923
654.0362346,6043288.013158467
650.9184646000001,6041403.100273851
647.8377654,6041965.598050838
644.7935217999999,6040548.03123034
641.7851312999999,6043132.496439828
638.8120038,6041716.878878457
635.8735614,6042344.701290575
632.9692378999999,6040786.146364843
630.0984786,6040891.21124429
627.2607402000001,6041307.32072472
624.4554901,6040284.182305254
621.6822068,6040805.695176277
618.940379,6040888.776337682
616.2295054,6041098.359061493
613.549095,6041666.322519142
610.8986664,6041412.506710116
608.2777476,6041508.265407113
605.6858758999999,6041467.1609094925
603.1225977000001,6041563.942726462
600.5874682,6041038.452031167
598.0800512,6041300.481507125
595.5999188999999,6041533.28458612
593.1466518,6041303.879698459
590.7198384999999,6041337.936355184
588.3190752,6041348.823169071
585.943966,6041319.864778598
583.5941226,6041510.008157084
581.2691637,6041312.4602596965
578.9687155,6041471.090360742
576.692411,6041405.302234382
574.4398902,6040851.796146921
572.2107997,6041109.214818455
570.0047927,6041312.55075177
567.8215287,6041670.412437143
565.6606737000001,6041623.893370909
563.5218996,6041232.72005152
561.4048845,6040883.76194478
559.3093121,6041182.095002736
557.2348721,6042084.177508823
555.1812597,6041563.431728182
553.1481756000001,6041308.904072411
551.1353259,6041406.967922858
549.1424218999999,6041270.24289333
547.1691801,6041071.106542966
545.2153222000001,6041717.140569529
543.2805745000001,6041392.963629104
541.3646685,6041437.333600231
539.46734,6041513.264101397
537.5883299,6041478.7062044125
535.7273833,6041253.370424078
533.8842498,6041415.994734498
532.0586836,6041621.083341965
530.2504428000001,6040751.37942847
528.45929,6041367.828994682
526.6849915,6041258.6236991165
524.927318,6041603.072980735
523.186044,6041117.866102208
521.4609475999999,6041149.763291311
519.7518110000001,6041438.749978365
518.0584200000001,6041011.871845222
516.3805639,6041171.849184028
514.7180356,6041391.682588656
513.0706316000001,6041413.713701748
511.43815149999995,6040846.1605042135
509.82039860000003,6041695.562930132
508.2171791999999,6041180.729911231
506.628303,6041946.111940231
505.05358269999994,6040964.413383115
503.4928341,6041160.9946219735
501.9458762,6041563.686567336
500.41253059999997,6041388.294526118
498.8926222,6041457.916642059
497.3859785,6041271.719351334
495.89242989999997,6041378.759007458
494.4118094,6041621.72610894
492.943953,6041109.6820945265
491.488699,6041523.786050481
490.04588839999997,6041779.292266549
488.6153648,6041664.544202375
487.19697429999997,6041220.942574116
485.7905654,6041346.034443169
484.39598889999996,6041568.8851953
483.01309800000007,6041458.6321825525
481.64174840000004,6041409.118965583
480.28179789999996,6041376.987758832
478.93310639999993,6041479.61749614
477.59553619999997,6041708.885005668
476.2689517,6041739.320789529
474.9532192,6041361.519554812
473.6482074,6041712.466934427
472.35378679999997,6041211.153274792
471.06982989999995,6041475.539915953
469.79621110000005,6041451.988291454
468.53280700000005,6041356.811920025
467.2794956999999,6041476.631195171
466.0361575,6041036.713708532
464.80267410000005,6041552.496164703
463.5789295,6041506.297296315
462.364809,6041162.44774892
461.1601998,6041227.645497701
459.9649909,6041512.35638616
458.7790727,6041419.9065495515
457.6023374,6041181.096669045
456.4346788,6041381.532107753
455.2759921,6041427.552028437
454.12617439999997,6041582.838150746
452.9851239,6041128.883037292
451.85274060000006,6041631.992311581
450.7289258,6041284.707688586
449.6135822,6041337.0610368075
448.5066141,6041365.626444584
447.407927,6041193.652188345
446.317428,6041549.270772378
445.23502520000005,6041482.518308638
444.1606283,6041081.164383513
443.0941482,6041355.871828438
442.03549699999996,6041463.097205638
440.9845882,6041339.662759433
439.9413364,6041706.791128762
438.9056575,6041360.00853218
437.87746860000004,6041425.555535328
436.85668780000003,6041457.41359613
435.8432345,6040051.434890951
434.83702930000004,6033499.467125812
433.83799369999997,6017637.080716303
432.84605039999997,5991789.170938316
431.8611232,5951646.7779283775
430.8831369,5894184.799036333
429.9120175,5818680.435234947
428.94769169999995,5722461.146107626
427.9900874,5607925.144393352
427.03913370000004,5480385.194948688
426.0947602,5343435.756145349
425.1568978,5202723.96025715
424.22547829999996,5061740.638969221
423.3004343,4924053.5187234515
422.3816994,4790327.463809382
421.4692081,4662578.036326331
420.56289569999996,4538501.065809617
419.66269850000003,4414192.349464765
418.7685535,4287237.243913505
417.8803987,4154138.8099503033
416.9981727,4012686.6222751564
416.12181519999996,3860651.501127888
415.25126639999996,3699743.9113887423
414.38646760000006,3532118.454160497
413.5273605,3358731.367869966
412.673888,3184715.5054019582
411.8259934,3013148.5272518583
410.9836208,2848458.1224358175
410.14671519999996,2694344.8261816003
409.3152221,2553409.8041873183
408.48908789999996,2427525.157889861
407.66825960000006,2316647.561967159
406.8526847,2220818.3267897232
406.0423117,2138377.135327639
405.2370896,2066932.2792383218
404.43696800000004,2003835.7932403216
403.64189730000004,1946610.0297373743
402.8518283,1892890.63853086
402.0667126,1841386.06802634
401.28650239999996,1790267.8419925268
400.5111505,1740289.1296245873
399.7406101,1690824.4120663041
398.9748353,1642647.8874227575
398.2137806,1596603.730938019
397.457401,1553141.8718218058
396.7056521,1513654.0766375628
395.9584903,1477695.2819076353
395.2158722,1445637.46975578
394.4777551,1417152.822720051
393.7440968,1391720.0385197874
393.0148555,1368337.501587554
392.2899901,1346359.2807407463
391.56946,1324667.3754844165
390.853225,1302300.2556270836
390.1412452,1278610.0144619043
389.43348169999996,1252315.6940015843
388.7298955,1223715.9605564836
388.03044839999995,1191908.3405235386
387.3351027,1157401.9427205145
386.6438209,1120080.367487485
385.95656610000003,1080556.9651991024
385.2733019,1039386.5741384715
384.5939922,997836.5785093821
383.9186014,956570.6924815186
383.2470943,916715.3211185384
382.5794362,879004.3528467519
381.9155926,844538.4513146369
381.2555296,813655.7706750571
380.59921360000004,786908.5143905034
379.9466115,764082.8688106412
379.29769039999996,745396.8943176244
378.652418,729934.9219136706
378.0107622,717354.923921846
377.37269130000004,706743.8571395155
376.73817410000004,697429.8620763171
376.1071796,688629.0686686619
375.47967719999997,679746.7443214675
374.8556368,670643.5971296928
374.2350283,660668.2420781951
373.6178223,650034.6463829479
373.0039896,638672.2921233902
372.3935012,626948.4518155521
371.78632860000005,614970.0781068393
371.1824436,602779.631840691
370.5818182,590627.4734199416
369.98442489999996,578615.7450323659
369.39023629999997,566585.7749886581
368.7992255,554471.1317458132
368.2113658,542188.8814287281
367.6266307,529420.9913852351
367.0449943,516174.4318843588
366.4664305,502386.25534400705
365.89091410000003,488052.32341201365
365.3184196,473225.43351720704
364.7489221,457957.7579760448
364.18239689999996,442601.03932016366
363.61881960000005,427196.34006678854
363.058166,411988.0667534734
362.50041219999997,397212.8623176125
361.94553460000003,383092.7191630022
361.3935098,369750.0586127489
360.8443147,357339.79598909727
360.29792630000003,346212.1334392077
359.754322,336373.6045595742
359.2134795,328046.3973811191
358.6753765,321305.3837570701
358.1399912,316081.5874120823
357.6073018,312474.2314148703
357.077287,310129.0057265159
356.5499253,308854.83583767724
356.025196,308323.2042441677
355.50307799999996,308086.70520207874
354.983551,307787.8975305048
354.4665945,306963.7061063635
353.95218839999995,305409.74998096697
353.4403127,302818.4006419572
352.9309478,299081.09698103165
352.42407410000004,294132.28476530954
351.9196722,288093.79287444084
351.4177232,281119.020128327
350.91820789999997,273286.8888266993
350.4211078,264768.4559132385
349.9264043,255899.70820322746
349.434079,246764.90945867644
348.9441137,237529.1794788285
348.45649060000005,228436.74759811047
347.97119169999996,219476.18112383835
347.48819960000003,210885.74168355422
347.0074967,202546.73154182985
346.5290657,194622.1335560961
346.0528897,187073.087048714
345.5789517,179858.12887922215
345.1072349,172970.27702985276
344.6377228,166404.9006558317
344.17039889999995,159970.71112347447
343.70524710000007,153741.49090580404
343.24225110000003,147565.98069346242
342.7813952,141432.83536778096
342.32266339999995,135285.63254661486
341.8660403,129105.77550370256
341.4115102,122814.01055636596
340.959058,116521.31483920607
340.5086685,110186.70283101061
340.06032660000005,103816.61525823492
339.6140175,97514.24593488568
339.1697264,91301.15140143664
338.7274388,85282.20283034358
338.28714019999995,79493.77406755713
337.8488164,74012.41015790691
337.41245310000005,68826.14067826781
336.9780363,64037.987250698665
336.5455522,59641.102788898505
336.114987,55591.2741729179
335.686327,51913.47508021131
335.2595588,48614.796056865314
334.834669,45651.328281637245
334.4116443,42938.934994437004
333.9904716,40503.01850485764
333.57113799999996,38246.68962848799
333.1536305,36169.48813434732
332.73793639999997,34214.464609740164
332.32404310000004,32370.610271949903
331.91193799999996,30577.915920514082
331.5016088,28811.594600376928
331.0930432,27077.743851828727
330.6862289,25381.25540406995
330.281154,23683.879891869303
329.8778065,22014.861978467696
329.47617460000004,20375.187157450746
329.07624649999997,18777.808445028397
328.6780106,17247.868871817816
328.2814555,15807.565898908071
327.88656960000003,14465.356236916987
327.4933418,13231.759195359466
327.1017607,12127.633296046955
326.7118154,11141.354404757614
326.32349480000005,10270.79357622793
325.93678789999996,9526.156822576
325.5516841,8885.261335728661
325.16817260000005,8322.770346898667
324.7862428,7846.356257466981
324.40588419999995,7418.836647915731
324.0270864,7042.106160159562
323.649839,6701.271838671475
323.2741319,6379.958248151519
322.8999548,6084.653559066018
322.5272977,5804.353413138357
322.1561508,5527.938958466241
321.786504,5280.6787551629795
321.4183476,5033.084078747055
321.0516719,4806.625144771507
320.6864673,4590.2991420106655
320.3227243,4384.913132669773
319.96043330000003,4195.1902245380625
319.5995851,4022.006266945963
319.2401704,3838.5148356868267
318.8821799,3680.5643828862458
318.5256045,3516.2498009617852
318.1704352,3385.0427213834205
317.8166631,3240.774787485006
317.4642791,3108.654098871205
317.1132746,2987.581543935158
316.76364069999994,2861.498873544343
316.4153688,2745.423653480304
316.06845039999996,2633.575195319385
315.72287689999996,2536.283550448384
315.37863980000003,2437.0195764799873
315.0357308,2325.3794059185625
314.6941415,2225.857768426355
314.3538639,2125.3712013036684
314.0148896,2017.1404797214896
313.6772106,1918.9102038345054
313.3408189,1804.354133404513
313.00570639999995,1705.7183936274137
312.67186549999997,1600.9811898984665
312.33928810000003,1511.6837258811854
312.0079665,1421.7032763005084
311.6778931,1335.5482304353968
311.34906010000003,1255.2852995808535
311.0214601,1172.560156377634
310.6950856,1107.2432159590614
310.369929,1035.899337369297
310.04598300000004,973.4466834822324
309.7232403,908.3087253584044
309.4016935,852.1373732808665
309.0813356,795.2617818802994
308.7621594,748.5982127379323
308.4441577,704.9639062689157
308.1273236,656.6770852373733
307.8116501,612.3870629077087
307.49713019999996,502.9626331594204
307.18375710000004,402.71550869325205
306.871524,310.45199938573484
306.5604242,227.80855660813125
306.2504509,161.59606165455392
