wave,flux
1817.164934,-7.149059981702233
1790.1022050000001,2.1036590383656053
1763.812741,4.342207838633333
1738.2646949999998,9.582093764926428
1713.427949,68.6082676355641
1689.273995,993.50294158783
1665.7758310000002,3107.1234630790473
1642.907862,6386.461741549565
1620.64581,10871.871882363646
1598.9666300000001,16567.987275161693
1577.8484310000001,23426.07440517679
1557.270407,31399.26073726375
1537.212767,40555.3395038935
1517.65668,49237.515627510664
1498.5842089999999,57021.2673944053
1479.978265,63876.885530377614
1461.822555,69755.61199056832
1444.101535,74703.1500361245
1426.800368,78752.96713721871
1409.904887,81765.55873194647
1393.401553,83877.80979445344
1377.2774220000001,85786.04534562917
1361.520115,87826.11436289907
1346.117782,89699.19747600018
1331.059081,91567.9063142992
1316.3331449999998,93505.99650329266
1301.92956,95310.2975380624
1287.838342,97116.87860224099
1274.049912,98957.7549080432
1260.5550779999999,100730.09516973287
1247.345017,102361.6400211086
1234.4112519999999,104077.22737831608
1221.74564,105889.35721698868
1209.340352,107760.96381564098
1197.187859,109777.67962960203
1185.28092,111873.57189949203
1173.612564,114240.04235341267
1162.1760800000002,116776.28016159256
1150.9650060000001,119432.39993317408
1139.973115,122290.21216436033
1129.194406,125182.82170685055
1118.623093,128159.0710139336
1108.253594,131162.70183815382
1098.0805269999998,134081.10824606018
1088.098695,137259.1998772359
1078.303081,140633.53732319226
1068.688841,144329.92357779885
1059.251295,148451.0932190079
1049.9859199999999,153567.70737649806
1040.8883449999998,159516.28016110728
1031.9543429999999,166869.23152692473
1023.1798259999999,175617.79386767856
1014.5608390000001,185707.45018237762
1006.0935529999999,197160.2173694429
997.774265,209590.3458555636
989.5993858999999,222938.64917153644
981.5654412999999,236746.66050236768
973.6690651,250274.65905434696
965.9069952,263638.74012697616
958.2760697000001,275911.96848055196
950.7732231000001,287100.3010955729
943.3954827,296609.1707025166
936.1399648,305183.8118557911
929.0038716,311615.56491424213
921.9844879000001,316920.383479221
915.0791782,320670.8333959143
908.2853836000002,324404.6210353208
901.6006193,327465.86841625016
895.0224714,332103.3545360607
888.548595,337460.28652419103
882.1767113,345156.29835617536
875.9046055,355429.6260749082
869.7301242999998,369126.1479317956
863.6511742999999,387102.1604385794
857.6657193,410201.222077972
851.7717787,437871.66751637217
845.9674256000001,472973.672324215
840.2507849,517381.5752401178
834.6200316000001,568662.1124151215
829.0733892000001,629417.6446310554
823.6091279,699124.6014004565
818.2255633999999,777957.8002610634
812.9210552000001,861826.8455589361
807.694005,950811.3871181564
802.5428559,1038044.3368374351
797.4660904,1125880.4840740154
792.4622299,1217246.6082138235
787.5298327,1308958.5219440314
782.6674933999999,1412904.9749055014
777.8738417999999,1538763.1932314606
773.1475413,1697508.2989901744
768.4872882999999,1901080.1056589368
763.8918112000001,2168922.67026129
759.3598692,2497599.9756203056
754.8902515999999,2877485.498198859
750.4817767999999,3295951.9801608706
746.1332914,3742343.5114457095
741.8436694000001,4200034.073517303
737.6118116,4630517.5769775165
733.4366444,5024807.458934861
729.3171195,5340463.894491572
725.2522127999999,5590712.872697295
721.2409241,5775033.989893918
717.282276,5907822.893409207
713.3753136,5987520.166011911
709.5191037000001,6027280.816483023
705.7127343,6043457.394262066
701.9553139,6043265.877459653
698.2459709,6043082.150477432
694.5838534,6041545.253108772
690.9681281000001,6041673.340360351
687.3979803,6042847.741707296
683.8726131,6038842.495540988
680.3912472999999,6039627.193675491
676.9531202000001,6041958.3931362685
673.557486,6041895.510296676
670.2036149,6042374.041379245
666.8907926,6041878.439572708
663.6183202999999,6040704.517729928
660.3855139,6040056.189337038
657.1917038,6041529.546210527
654.0362346,6041638.741827081
650.9184646000001,6038890.9415615
647.8377654,6042214.864780768
644.7935217999999,6041485.665457136
641.7851312999999,6041268.830363678
638.8120038,6042073.949301942
635.8735614,6040994.276651423
632.9692378999999,6041223.871313795
630.0984786,6040130.179996862
627.2607402000001,6041338.128399854
624.4554901,6042593.117591303
621.6822068,6041720.081299247
618.940379,6040894.51676181
616.2295054,6041092.235701275
613.549095,6041213.263984421
610.8986664,6041395.835355644
608.2777476,6041204.067400476
605.6858758999999,6041306.557109234
603.1225977000001,6041632.246783881
600.5874682,6041497.349531977
598.0800512,6041256.617697381
595.5999188999999,6041255.808322348
593.1466518,6041360.559386684
590.7198384999999,6041198.767533087
588.3190752,6041231.155039879
585.943966,6041445.48428304
583.5941226,6041744.685329531
581.2691637,6041158.136796825
578.9687155,6041354.896046824
576.692411,6041331.979268853
574.4398902,6041549.692594516
572.2107997,6041264.418457897
570.0047927,6041528.951386022
567.8215287,6041666.30088127
565.6606737000001,6041462.961151515
563.5218996,6041617.088400452
561.4048845,6041515.281276272
559.3093121,6041411.958939211
557.2348721,6041471.3701903885
555.1812597,6041505.031709853
553.1481756000001,6041061.947945228
551.1353259,6041540.579012493
549.1424218999999,6041450.010093794
547.1691801,6041350.57789341
545.2153222000001,6041446.585355506
543.2805745000001,6041268.547909515
541.3646685,6041355.436353318
539.46734,6041417.5263001025
537.5883299,6041300.801605811
535.7273833,6041236.945503643
533.8842498,6041345.733272417
532.0586836,6041434.67252405
530.2504428000001,6041301.359002342
528.45929,6041463.036044785
526.6849915,6041524.977412714
524.927318,6041168.682689738
523.186044,6041298.449491087
521.4609475999999,6041634.016192599
519.7518110000001,6041773.311586929
518.0584200000001,6041140.821926645
516.3805639,6041787.597469926
514.7180356,6041373.561673326
513.0706316000001,6041678.607518255
511.43815149999995,6041281.543955732
509.82039860000003,6041326.929745634
508.2171791999999,6041026.143092945
506.628303,6041445.674229031
505.05358269999994,6041123.337998354
503.4928341,6041589.07559459
501.9458762,6041385.392414193
500.41253059999997,6041328.525842716
498.8926222,6041647.7604481075
497.3859785,6040982.530463283
495.89242989999997,6041272.677095886
494.4118094,6041361.613199628
492.943953,6041499.382096905
491.488699,6041382.5641171625
490.04588839999997,6041406.685968474
488.6153648,6041309.545945979
487.19697429999997,6041719.165836902
485.7905654,6041352.823575977
484.39598889999996,6041314.827080684
483.01309800000007,6041522.21486219
481.64174840000004,6041500.566926599
480.28179789999996,6041320.4380502235
478.93310639999993,6041322.688057972
477.59553619999997,6041243.808465633
476.2689517,6041436.325852074
474.9532192,6041967.902456327
473.6482074,6041369.870724899
472.35378679999997,6041574.905726765
471.06982989999995,6041298.168676727
469.79621110000005,6041609.178240122
468.53280700000005,6041318.078856294
467.2794956999999,6041213.243295321
466.0361575,6041244.1089633815
464.80267410000005,6041605.081359446
463.5789295,6040034.5476785125
462.364809,6032935.702833653
461.1601998,6018246.37914203
459.9649909,5991658.832879554
458.7790727,5950806.950975147
457.6023374,5893024.427562005
456.4346788,5816462.268053521
455.2759921,5719573.816501022
454.12617439999997,5602813.130512032
452.9851239,5470261.472845264
451.85274060000006,5328110.930722902
450.7289258,5179546.8429761715
449.6135822,5029438.530955977
448.5066141,4878602.927993677
447.407927,4732987.645574282
446.317428,4595496.890544781
445.23502520000005,4470142.100021044
444.1606283,4356902.323815038
443.0941482,4256946.855463001
442.03549699999996,4171998.738266369
440.9845882,4101651.4675338636
439.9413364,4044948.35993208
438.9056575,4000344.2522911183
437.87746860000004,3963947.646642641
436.85668780000003,3931013.9980534506
435.8432345,3896569.7003201162
434.83702930000004,3857011.635860746
433.83799369999997,3807310.9564888407
432.84605039999997,3746127.152963559
431.8611232,3672803.4241706817
430.8831369,3588778.6313162493
429.9120175,3496437.2581698964
428.94769169999995,3399507.0756531265
427.9900874,3302284.8769887667
427.03913370000004,3208501.4546478516
426.0947602,3121447.8346010987
425.1568978,3043397.4085061145
424.22547829999996,2976755.6921961857
423.3004343,2920971.3766617067
422.3816994,2875683.4232507483
421.4692081,2838555.040276661
420.56289569999996,2807850.548248156
419.66269850000003,2779662.491874701
418.7685535,2751554.0922488086
417.8803987,2719693.936143338
416.9981727,2681230.5021321983
416.12181519999996,2634458.737152386
415.25126639999996,2577482.474640117
414.38646760000006,2510578.959073536
413.5273605,2434651.017315345
412.673888,2350852.788432408
411.8259934,2261186.935862424
410.9836208,2167620.5567105417
410.14671519999996,2072262.165872257
409.3152221,1976796.6195690287
408.48908789999996,1881957.62418582
407.66825960000006,1788426.3733771918
406.8526847,1695653.1007447846
406.0423117,1603115.3926058826
405.2370896,1510350.5938831118
404.43696800000004,1416725.9727793515
403.64189730000004,1322016.3687562959
402.8518283,1226068.1836854042
402.0667126,1129907.26846168
401.28650239999996,1034307.5918225814
400.5111505,940333.6994855101
399.7406101,848626.2309422513
398.9748353,760490.6354479084
398.2137806,677352.7321655739
397.457401,599538.8662080169
396.7056521,528291.21098236
395.9584903,463441.7447604511
395.2158722,405162.1441593103
394.4777551,353113.73946769803
393.7440968,308663.78433834173
393.0148555,271098.6682173405
392.2899901,239368.05273648375
391.56946,213387.33012966422
390.853225,192344.4245727374
390.1412452,175314.58800882552
389.43348169999996,161936.5208429408
388.7298955,151445.22320495723
388.03044839999995,142595.79074215546
387.3351027,135004.9067951946
386.6438209,128567.42554634932
385.95656610000003,122772.70680878204
385.2733019,117576.73452152572
384.5939922,112748.37891919227
383.9186014,108339.58911435954
383.2470943,104226.81020849233
382.5794362,100361.2101725832
381.9155926,96673.44825984415
381.2555296,93111.22809270164
380.59921360000004,89694.16066387051
379.9466115,86362.28717634137
379.29769039999996,83082.36756614849
378.652418,79897.31100006295
378.0107622,76782.54639831244
377.37269130000004,73764.30754269173
376.73817410000004,70790.59277993711
376.1071796,67948.71090584932
375.47967719999997,65166.79673844711
374.8556368,62457.231522793314
374.2350283,59830.76726137148
373.6178223,57233.09396192402
373.0039896,54731.96889425125
372.3935012,52298.25614315202
371.78632860000005,49920.72641036241
371.1824436,47617.129823624724
370.5818182,45350.48663883639
369.98442489999996,43150.67439031496
369.39023629999997,41038.549836752434
368.7992255,39006.37150157269
368.2113658,37045.65813165395
367.6266307,35169.463845377366
367.0449943,33387.899042405115
366.4664305,31704.74566908582
365.89091410000003,30131.675561094853
365.3184196,28684.49277005262
364.7489221,27303.196955694635
364.18239689999996,26010.605634659903
363.61881960000005,24743.52180330481
363.058166,23544.956088064282
362.50041219999997,22374.884240481137
361.94553460000003,21254.961242807694
361.3935098,20145.783450340707
360.8443147,19071.844855668223
360.29792630000003,18044.023195081943
359.754322,17068.324502963456
359.2134795,16161.410625262348
358.6753765,15316.980982104558
358.1399912,14533.748310054469
357.6073018,13803.980237514743
357.077287,13115.589466216443
356.5499253,12466.530970689091
356.025196,11847.357909839608
355.50307799999996,11256.361283466083
354.983551,10687.25243753103
354.4665945,10111.09467188616
353.95218839999995,9531.257820733781
353.4403127,8957.241774584561
352.9309478,8404.328112991949
352.42407410000004,7855.488982148702
351.9196722,7301.6669542586915
351.4177232,6744.836058331408
350.91820789999997,6191.836004211439
350.4211078,5678.322967595984
349.9264043,5197.4096700052805
349.434079,4746.920291989879
348.9441137,4304.528342227105
348.45649060000005,3892.5332116625423
347.97119169999996,3527.050322408536
347.48819960000003,3173.5138898272558
347.0074967,2847.8031738396385
346.5290657,2529.7411630357888
346.0528897,2197.9155386820407
345.5789517,1895.0547232368758
345.1072349,1608.73232983087
344.6377228,1342.4866101889816
344.17039889999995,1087.3891798039842
343.70524710000007,860.4805703954573
343.24225110000003,646.6168569259495
342.7813952,479.0068537922887
342.32266339999995,340.2810141286068
341.8660403,230.64942867976998
341.4115102,146.03171243383338
340.959058,89.8055800011726
340.5086685,44.05875675166633
340.06032660000005,18.29537577399014
339.6140175,5.1944693849380315
339.1697264,-0.3374933262691642
338.7274388,-3.6821276008094244
338.28714019999995,-1.5955926648167118
337.8488164,1.2935939943054562
337.41245310000005,1.874101449829746
336.9780363,-1.8336271401869768
336.5455522,-3.4145000278689377
336.114987,0.9214913229241454
335.686327,0.9665375006206244
335.2595588,-0.2622724547431843
334.834669,1.1764472801379842
334.4116443,1.6992289246754868
333.9904716,-2.4311195688915612
333.57113799999996,-4.428111398514484
333.1536305,4.8105188111355615
332.73793639999997,2.7258603376166968
332.32404310000004,1.5432336753950873
331.91193799999996,0.5538079177465401
331.5016088,7.051726246628221
331.0930432,-3.9668491684180487
330.6862289,0.009872315656976998
330.281154,2.1865365951156006
329.8778065,-1.6569971108642152
329.47617460000004,-0.5130034677331294
329.07624649999997,4.300055717042421
328.6780106,1.4019662521301497
328.2814555,-1.3226371380914557
327.88656960000003,-0.16499432787371007
327.4933418,-0.7505620438718907
327.1017607,-2.9248176038384828
326.7118154,-1.2423857571229633
326.32349480000005,-1.8034798242914256
325.93678789999996,2.1713273426139934
325.5516841,-2.1276542337537703
325.16817260000005,-4.650065216761433
324.7862428,2.05119615707437
324.40588419999995,3.327112990047372
324.0270864,-0.8269957430827934
323.649839,-2.1530767814165346
323.2741319,3.332543098007521
322.8999548,0.527232374789344
322.5272977,-0.291636912107295
322.1561508,-1.6900289457765936
321.786504,-0.2120314376789104
321.4183476,2.024868768245617
321.0516719,-1.6143002994124924
320.6864673,-2.0990267036324517
320.3227243,1.029269127547118
319.96043330000003,7.308079254387198
319.5995851,-3.6246971120149127
319.2401704,-6.0965567445626325
318.8821799,-4.024186256397933
318.5256045,1.6976121801560025
318.1704352,0.18481220272121615
317.8166631,2.5038996888027008
317.4642791,0.4399639031498216
317.1132746,-2.072613152584501
316.76364069999994,-0.6142415270489066
316.4153688,-1.39585344109196
316.06845039999996,-0.27669559871085986
315.72287689999996,-0.5816531379821329
315.37863980000003,1.3926798359781838
315.0357308,-2.4370484068504545
314.6941415,3.2083241451557414
314.3538639,-2.1598797985984968
314.0148896,-2.3436978996261324
313.6772106,-2.3897478731958857
313.3408189,-1.0198089886039297
313.00570639999995,-1.6069746300086414
312.67186549999997,0.06543512359071113
312.33928810000003,1.0511253526228717
312.0079665,0.4149092124384784
311.6778931,0.5782636932498662
311.34906010000003,1.2051419324189572
311.0214601,1.8176129252175124
310.6950856,0.15310240974593467
310.369929,1.9612797278007952
310.04598300000004,1.7772494002771146
309.7232403,1.7696226434206028
309.4016935,0.8106705538391173
309.0813356,-0.2447175720420159
308.7621594,1.6761579594136735
308.4441577,-4.571708073005612
308.1273236,-2.9175397075538183
307.8116501,2.813867300021306
307.49713019999996,0.6722376654305411
307.18375710000004,2.9726546636398576
306.871524,0.8090079707234821
306.5604242,1.5143406809361941
306.2504509,-0.5285949282726122
