wave,flux
1817.164934,14.90047897749481
1790.1022050000001,6.979587660582789
1763.812741,13.156977636436752
1738.2646949999998,34.94412926478953
1713.427949,127.31109422617546
1689.273995,1053.757421412382
1665.7758310000002,3244.6222042461523
1642.907862,6770.46393832719
1620.64581,11607.726249366468
1598.9666300000001,17788.11687250503
1577.8484310000001,25321.349673746456
1557.270407,34190.62607902345
1537.212767,44507.81334980089
1517.65668,54650.43052675703
1498.5842089999999,64024.70342252487
1479.978265,72689.74801159243
1461.822555,80546.2763882177
1444.101535,87533.89064947894
1426.800368,93729.3494196827
1409.904887,98935.04207923492
1393.401553,103269.13417489067
1377.2774220000001,107267.74909625972
1361.520115,111271.13309999641
1346.117782,115258.07434689034
1331.059081,119212.58603933724
1316.3331449999998,122999.46352865073
1301.92956,126854.19201921161
1287.838342,130657.71610948109
1274.049912,134317.88173305086
1260.5550779999999,138018.93115610332
1247.345017,141554.04022410195
1234.4112519999999,145094.43439187482
1221.74564,148266.78251848542
1209.340352,151715.6642510512
1197.187859,154960.92538926034
1185.28092,158297.9422338785
1173.612564,161639.33544082168
1162.1760800000002,165137.37353261144
1150.9650060000001,168610.3912640344
1139.973115,172312.74276005768
1129.194406,176115.6911150414
1118.623093,180346.66832826773
1108.253594,184460.30949079595
1098.0805269999998,188967.6351714364
1088.098695,193416.19961871876
1078.303081,198059.88863290788
1068.688841,203166.84312948075
1059.251295,208990.0341424467
1049.9859199999999,215425.51240410152
1040.8883449999998,222862.91881079425
1031.9543429999999,231621.0936342816
1023.1798259999999,241925.9503379952
1014.5608390000001,253740.85301563804
1006.0935529999999,267112.8274049743
997.774265,281299.190518948
989.5993858999999,297072.0453153588
981.5654412999999,313004.3913129918
973.6690651,329120.0888217074
965.9069952,344928.8261114937
958.2760697000001,359882.4598668632
950.7732231000001,374206.86308724526
943.3954827,387193.0970756096
936.1399648,398372.8863214207
929.0038716,407961.0176698868
921.9844879000001,416987.11480910884
915.0791782,424488.85025257495
908.2853836000002,431970.16137100174
901.6006193,439294.99181471905
895.0224714,447952.7797887893
888.548595,457765.75942470203
882.1767113,469453.68830063404
875.9046055,484982.6364524879
869.7301242999998,502718.68106263975
863.6511742999999,526477.4578483182
857.6657193,555227.6602417867
851.7717787,589606.6670052077
845.9674256000001,632467.1435547814
840.2507849,683486.8882469572
834.6200316000001,742940.9683983173
829.0733892000001,812124.8807019836
823.6091279,891927.3059725973
818.2255633999999,980535.779322843
812.9210552000001,1072508.2311331995
807.694005,1172429.8248509595
802.5428559,1275227.625907701
797.4660904,1378052.996354279
792.4622299,1484700.233790779
787.5298327,1596803.8371584243
782.6674933999999,1727708.7352497368
777.8738417999999,1884670.597424771
773.1475413,2080743.859283375
768.4872882999999,2329696.6483272198
763.8918112000001,2633853.182394542
759.3598692,2987729.5670913933
754.8902515999999,3382454.821610904
750.4817767999999,3802203.953766015
746.1332914,4237845.43183959
741.8436694000001,4652820.284427279
737.6118116,5028992.352019215
733.4366444,5341676.333773937
729.3171195,5591936.310782046
725.2522127999999,5777753.360280868
721.2409241,5906663.941411587
717.282276,5986021.363388763
713.3753136,6026044.7959259
709.5191037000001,6044202.983088798
705.7127343,6040512.9262938285
701.9553139,6040694.20391479
698.2459709,6042560.202801443
694.5838534,6042001.424647279
690.9681281000001,6042135.220360505
687.3979803,6039755.903289053
683.8726131,6039600.087999241
680.3912472999999,6042053.13948749
676.9531202000001,6042674.9897776125
673.557486,6043725.736421667
670.2036149,6042026.54861706
666.8907926,6041818.747387605
663.6183202999999,6041327.691097167
660.3855139,6039963.8271941785
657.1917038,6042344.47914576
654.0362346,6041871.174484118
650.9184646000001,6039266.953197638
647.8377654,6040415.271522941
644.7935217999999,6042246.015236167
641.7851312999999,6041272.48219604
638.8120038,6040180.636818582
635.8735614,6040832.5801206585
632.9692378999999,6042329.864132121
630.0984786,6042498.071897217
627.2607402000001,6040625.1330162175
624.4554901,6042778.391859511
621.6822068,6042692.464929612
618.940379,6041107.55721184
616.2295054,6041515.561347228
613.549095,6041371.844763433
610.8986664,6041801.061442417
608.2777476,6041448.457373865
605.6858758999999,6041816.219172489
603.1225977000001,6041425.465533563
600.5874682,6041743.347314545
598.0800512,6041383.397134848
595.5999188999999,6041231.9608080285
593.1466518,6041448.95181533
590.7198384999999,6041601.426100564
588.3190752,6040964.7916655475
585.943966,6041122.327026377
583.5941226,6041885.002529987
581.2691637,6041525.469077245
578.9687155,6041673.714401937
576.692411,6041685.448200224
574.4398902,6041721.694615591
572.2107997,6041138.057703268
570.0047927,6041440.556035047
567.8215287,6041075.833706901
565.6606737000001,6041355.131876048
563.5218996,6041437.752393558
561.4048845,6041589.7572966525
559.3093121,6040978.2164139375
557.2348721,6041715.973811967
555.1812597,6041460.683975631
553.1481756000001,6041485.679642702
551.1353259,6041689.765650254
549.1424218999999,6041344.985239373
547.1691801,6041392.339546078
545.2153222000001,6041714.448665795
543.2805745000001,6041182.480499588
541.3646685,6041433.325066709
539.46734,6041243.005962505
537.5883299,6041283.280641613
535.7273833,6041769.001147922
533.8842498,6041562.605952274
532.0586836,6041732.870608407
530.2504428000001,6041280.433801092
528.45929,6041738.6937850285
526.6849915,6041375.197916837
524.927318,6041264.494290219
523.186044,6041524.195560575
521.4609475999999,6041747.995670215
519.7518110000001,6041593.673656247
518.0584200000001,6041532.273433485
516.3805639,6041285.910598522
514.7180356,6041715.748709277
513.0706316000001,6041596.297167319
511.43815149999995,6041221.389492269
509.82039860000003,6041296.628191917
508.2171791999999,6040648.522358413
506.628303,6041367.518284821
505.05358269999994,6041370.28762111
503.4928341,6041326.715575885
501.9458762,6041205.553619261
500.41253059999997,6041697.340897104
498.8926222,6041245.536885689
497.3859785,6041225.870958519
495.89242989999997,6041653.314376922
494.4118094,6041312.782152298
492.943953,6041316.239616582
491.488699,6041856.938785294
490.04588839999997,6041419.324479078
488.6153648,6041029.372167488
487.19697429999997,6041610.026919132
485.7905654,6041184.408881816
484.39598889999996,6041088.141252148
483.01309800000007,6041197.02177974
481.64174840000004,6041406.302239426
480.28179789999996,6041590.595251228
478.93310639999993,6041296.062637627
477.59553619999997,6041634.923856061
476.2689517,6041410.253015428
474.9532192,6041377.714255816
473.6482074,6041020.776032813
472.35378679999997,6041673.109400706
471.06982989999995,6041374.325796434
469.79621110000005,6041194.231685914
468.53280700000005,6041446.489768738
467.2794956999999,6039360.271053506
466.0361575,6030943.090724292
464.80267410000005,6012801.910181105
463.5789295,5981448.164852351
462.364809,5935412.046672119
461.1601998,5871422.234319707
459.9649909,5788676.650291156
458.7790727,5686404.736980426
457.6023374,5567722.52243324
456.4346788,5441186.12685075
455.2759921,5313897.885292344
454.12617439999997,5190697.974025485
452.9851239,5076911.260208065
451.85274060000006,4976939.641436837
450.7289258,4892506.370030185
449.6135822,4825488.5188898435
448.5066141,4772896.890256155
447.407927,4731374.004897745
446.317428,4695906.5942345485
445.23502520000005,4662590.697492435
444.1606283,4627146.6077326285
443.0941482,4587552.423007119
442.03549699999996,4541770.263121453
440.9845882,4489356.413284494
439.9413364,4431227.968663757
438.9056575,4368731.865132969
437.87746860000004,4305841.08774284
436.85668780000003,4247091.827121373
435.8432345,4197441.4301075265
434.83702930000004,4163032.2231991887
433.83799369999997,4150384.7460009325
432.84605039999997,4164978.311664476
431.8611232,4212452.910167331
430.8831369,4295677.435859928
429.9120175,4414493.696887506
428.94769169999995,4565365.31295338
427.9900874,4740447.886402063
427.03913370000004,4931771.911097816
426.0947602,5129198.644222971
425.1568978,5322591.673205543
424.22547829999996,5500775.772035413
423.3004343,5655762.266899665
422.3816994,5775202.670296607
421.4692081,5855670.074373481
420.56289569999996,5895909.7486162875
419.66269850000003,5893801.1280613225
418.7685535,5849867.207536742
417.8803987,5764098.159139782
416.9981727,5636525.65718472
416.12181519999996,5471464.252018779
415.25126639999996,5278774.821133385
414.38646760000006,5066717.960391907
413.5273605,4843932.7164797485
412.673888,4619935.483304757
411.8259934,4405862.272579052
410.9836208,4210646.341859683
410.14671519999996,4042426.816606883
409.3152221,3905204.2313317857
408.48908789999996,3800342.0946851987
407.66825960000006,3724461.332118933
406.8526847,3672593.1654298767
406.0423117,3637729.4724158426
405.2370896,3613084.200958489
404.43696800000004,3590621.0512620164
403.64189730000004,3563373.538249676
402.8518283,3525689.545557445
402.0667126,3473850.6319965487
401.28650239999996,3406997.729082665
400.5111505,3323446.925220801
399.7406101,3224545.503214932
398.9748353,3112913.0622736462
398.2137806,2991617.948347775
397.457401,2863699.41299726
396.7056521,2731915.744942009
395.9584903,2599549.5546591813
395.2158722,2468482.945838958
394.4777551,2340506.0250422168
393.7440968,2217136.771795131
393.0148555,2099167.900459473
392.2899901,1987004.0073971385
391.56946,1880671.8126742137
390.853225,1780922.044675784
390.1412452,1687705.4305442232
389.43348169999996,1601423.932506491
388.7298955,1523069.2895168709
388.03044839999995,1453077.8332042776
387.3351027,1392432.7673382445
386.6438209,1341460.9961954963
385.95656610000003,1300962.3207269008
385.2733019,1270617.8554840018
384.5939922,1250153.197088882
383.9186014,1238516.3369277252
383.2470943,1234545.8738413162
382.5794362,1236543.15628948
381.9155926,1242993.83961304
381.2555296,1252032.1064546641
380.59921360000004,1262496.3176322673
379.9466115,1272927.0269440208
379.29769039999996,1283304.254261784
378.652418,1293058.8732271446
378.0107622,1303213.4066228725
377.37269130000004,1314024.7594768836
376.73817410000004,1326231.2380765807
376.1071796,1340699.2841483045
375.47967719999997,1358485.700291221
374.8556368,1379597.6735278794
374.2350283,1404462.228413005
373.6178223,1432465.1230215312
373.0039896,1463365.2998297082
372.3935012,1495740.0992190475
371.78632860000005,1528788.54647092
371.1824436,1561670.5049049526
370.5818182,1592849.0215367156
369.98442489999996,1622371.500700988
369.39023629999997,1649293.6137081631
368.7992255,1673826.7857731625
368.2113658,1695878.3412706526
367.6266307,1715960.2914714166
367.0449943,1734137.854811768
366.4664305,1750455.164100567
365.89091410000003,1765194.328067365
365.3184196,1778924.0983583734
364.7489221,1790635.1680457522
364.18239689999996,1800134.947425455
363.61881960000005,1807185.902849767
363.058166,1810915.677117171
362.50041219999997,1810975.6961968709
361.94553460000003,1806406.326616216
361.3935098,1797017.8098279126
360.8443147,1782535.646329214
360.29792630000003,1762698.076755309
359.754322,1737992.770965439
359.2134795,1708814.8839136085
358.6753765,1676523.4578489868
358.1399912,1642024.2820237083
357.6073018,1607082.0224738426
357.077287,1573618.8971748734
356.5499253,1542223.1907141882
356.025196,1515185.3436210211
355.50307799999996,1492373.2511421922
354.983551,1474536.4509321554
354.4665945,1461140.4705810838
353.95218839999995,1450965.5684582829
353.4403127,1443190.4294934275
352.9309478,1435405.3142526916
352.42407410000004,1426458.363400684
351.9196722,1414407.1484963768
351.4177232,1397829.9432060262
350.91820789999997,1375811.6259576895
350.4211078,1347705.801303265
349.9264043,1313334.4754617102
349.434079,1272868.5114974692
348.9441137,1226691.5725896307
348.45649060000005,1176109.2538956671
347.97119169999996,1121508.1642474309
347.48819960000003,1064295.5660494743
347.0074967,1005107.2328409724
346.5290657,945273.054225382
346.0528897,886045.5608528751
345.5789517,827931.7184819704
345.1072349,772370.6997056466
344.6377228,719888.755027351
344.17039889999995,671042.5585043315
343.70524710000007,626648.5323164436
343.24225110000003,586891.6791151565
342.7813952,551944.4907841121
342.32266339999995,521859.9642669693
341.8660403,496387.42075984576
341.4115102,475444.63772957353
340.959058,458438.17260873935
340.5086685,445171.4502606517
340.06032660000005,435298.57796351094
339.6140175,428423.4952800504
339.1697264,424135.8919394664
338.7274388,422180.8308389936
338.28714019999995,421728.83960154944
337.8488164,422381.9964402898
337.41245310000005,423300.7323361622
336.9780363,423776.8439210035
336.5455522,422935.70990985393
336.114987,419864.44281358225
335.686327,413899.97486933775
335.2595588,404716.8128716995
334.834669,391860.9626905466
334.4116443,375342.0259213183
333.9904716,355626.7029661765
333.57113799999996,333139.0559671084
333.1536305,308565.29239749874
332.73793639999997,282807.6491168097
332.32404310000004,256609.7905089505
331.91193799999996,230911.87036613454
331.5016088,206170.1704962379
331.0930432,183082.49393220808
330.6862289,162034.48480858706
330.281154,143045.62681834307
329.8778065,126255.07444299113
329.47617460000004,111780.08303008604
329.07624649999997,99250.52844263613
328.6780106,88492.52300452943
328.2814555,79502.4311484974
327.88656960000003,71743.57605938076
327.4933418,65267.058443916816
327.1017607,59710.83885364088
326.7118154,55098.242524143876
326.32349480000005,51196.55824547367
325.93678789999996,47884.316404318175
325.5516841,44985.28347809363
325.16817260000005,42528.356671805916
324.7862428,40475.10321407412
324.40588419999995,38692.61194411649
324.0270864,37080.3767166208
323.649839,35643.51902438035
323.2741319,34410.117115083616
322.8999548,33232.521297357605
322.5272977,32166.715982814618
322.1561508,31144.7157172824
321.786504,30171.939912216607
321.4183476,29221.27825237007
321.0516719,28261.806059390372
320.6864673,27335.50887713368
320.3227243,26360.053743673583
319.96043330000003,25437.293778016538
319.5995851,24479.94847429034
319.2401704,23497.817009467664
318.8821799,22500.70249809233
318.5256045,21553.553967676322
318.1704352,20588.196860881595
317.8166631,19617.31720470061
317.4642791,18668.679414420843
317.1132746,17756.675301054318
316.76364069999994,16868.676545511156
316.4153688,15996.57424865047
316.06845039999996,15201.77168198116
315.72287689999996,14439.932001481271
315.37863980000003,13715.377713150845
315.0357308,13061.283827433057
314.6941415,12455.800916301285
314.3538639,11857.136211805715
314.0148896,11320.330687801614
313.6772106,10809.899237063615
313.3408189,10317.254452634552
313.00570639999995,9805.677832750347
312.67186549999997,9320.810928211895
312.33928810000003,8813.126225839513
312.0079665,8337.788503841595
311.6778931,7862.8701270444
311.34906010000003,7407.536146367633
311.0214601,6962.350921458816
310.6950856,6537.82507865203
310.369929,6124.4867813198425
310.04598300000004,5739.166732391148
309.7232403,5377.2463867720835
309.4016935,5046.503295072497
309.0813356,4712.253779135031
308.7621594,4397.8453342754165
308.4441577,4111.255272368118
308.1273236,3846.9432243977753
307.8116501,3615.4521530946527
307.49713019999996,2962.835669102964
307.18375710000004,2393.4367154565907
306.871524,1873.350002035552
306.5604242,1426.7484175482784
306.2504509,1018.6725001894993
