wave,flux
1817.164934,-1.1838851766516068
1790.1022050000001,9.806639176071359
1763.812741,9.746839865374634
1738.2646949999998,24.970752150670023
1713.427949,109.28283912745
1689.273995,275.62017022279315
1665.7758310000002,654.8253785436067
1642.907862,1240.2126723632275
1620.64581,2162.242104169924
1598.9666300000001,3420.0470457004053
1577.8484310000001,5155.7452546900295
1557.270407,7282.457795836595
1537.212767,9953.794480567862
1517.65668,13016.053795510301
1498.5842089999999,16414.574197375856
1479.978265,20147.48739027893
1461.822555,24095.55389871745
1444.101535,28185.018259443023
1426.800368,32402.226537030765
1409.904887,36677.516732946955
1393.401553,40956.14121541697
1377.2774220000001,45184.96075014172
1361.520115,49427.17870750229
1346.117782,53561.132385728626
1331.059081,57807.308196701524
1316.3331449999998,61969.986243508356
1301.92956,66117.2521672108
1287.838342,70266.59594018858
1274.049912,74513.01801280912
1260.5550779999999,78693.80892006934
1247.345017,82944.45771244586
1234.4112519999999,87149.36468711795
1221.74564,91373.01278663473
1209.340352,95556.09767023072
1197.187859,99842.88804767284
1185.28092,104027.69173034141
1173.612564,108386.43032923863
1162.1760800000002,112695.51116108321
1150.9650060000001,116976.71321105912
1139.973115,121307.168467956
1129.194406,125721.60369950793
1118.623093,130220.05077852447
1108.253594,134546.29713916275
1098.0805269999998,138759.30892067886
1088.098695,143148.7969275298
1078.303081,147542.86871445394
1068.688841,152133.75622260693
1059.251295,156706.2037190554
1049.9859199999999,161687.08509715585
1040.8883449999998,166644.5594243908
1031.9543429999999,172108.42870600816
1023.1798259999999,177861.36038486534
1014.5608390000001,183989.80943852247
1006.0935529999999,190744.41846156685
997.774265,197808.3586000398
989.5993858999999,205454.31160769923
981.5654412999999,213574.15140905703
973.6690651,222126.68671575672
965.9069952,231064.70401673863
958.2760697000001,240043.29654684672
950.7732231000001,249432.30611267302
943.3954827,258856.1009230453
936.1399648,268309.0566016057
929.0038716,277663.2446631688
921.9844879000001,287031.4650796253
915.0791782,296288.684541161
908.2853836000002,305814.9403085689
901.6006193,314805.3273700219
895.0224714,324241.9169925471
888.548595,333498.071054263
882.1767113,343347.82157070097
875.9046055,353783.8967138057
869.7301242999998,365067.812509506
863.6511742999999,376619.4574665648
857.6657193,389935.58885603206
851.7717787,404521.071759869
845.9674256000001,420665.3654525324
840.2507849,439431.5649271168
834.6200316000001,459970.92718483537
829.0733892000001,484870.42148626904
823.6091279,511901.0491041755
818.2255633999999,542430.4360663812
812.9210552000001,577526.6116127672
807.694005,615194.1536747175
802.5428559,656332.7025883993
797.4660904,702215.7894961889
792.4622299,752563.702972863
787.5298327,806114.1044333187
782.6674933999999,864664.2987265314
777.8738417999999,935045.2823388813
773.1475413,1010334.4416011316
768.4872882999999,1100194.7553651957
763.8918112000001,1209287.2253741024
759.3598692,1339002.5825297087
754.8902515999999,1489704.0106301259
750.4817767999999,1671421.442035815
746.1332914,1874053.347871064
741.8436694000001,2110126.610401054
737.6118116,2370468.8699036646
733.4366444,2653089.4288853044
729.3171195,2955010.388513149
725.2522127999999,3273425.4923696625
721.2409241,3606362.956134376
717.282276,3939212.1520488486
713.3753136,4268487.473194557
709.5191037000001,4585725.5382058695
705.7127343,4880971.463595727
701.9553139,5150276.595727642
698.2459709,5386394.0793547565
694.5838534,5584327.404640055
690.9681281000001,5739100.972034989
687.3979803,5851965.826809216
683.8726131,5933869.245552327
680.3912472999999,5988528.494143492
676.9531202000001,6022596.208720673
673.557486,6035068.218952428
670.2036149,6041475.084036347
666.8907926,6040885.109748766
663.6183202999999,6041283.845771013
660.3855139,6041272.956065326
657.1917038,6040962.029525737
654.0362346,6043229.607509998
650.9184646000001,6038846.241766078
647.8377654,6040138.660038585
644.7935217999999,6042421.260265823
641.7851312999999,6041815.216091635
638.8120038,6040348.978665659
635.8735614,6041819.166540427
632.9692378999999,6040539.66437478
630.0984786,6041903.264221154
627.2607402000001,6042189.36735681
624.4554901,6041143.636809822
621.6822068,6040509.361193006
618.940379,6040685.864993528
616.2295054,6041177.925273627
613.549095,6041226.02023549
610.8986664,6041172.015054075
608.2777476,6041455.792141321
605.6858758999999,6041205.957075651
603.1225977000001,6041786.982864176
600.5874682,6041271.148413349
598.0800512,6041075.866014662
595.5999188999999,6041660.496218418
593.1466518,6041495.9873411665
590.7198384999999,6041279.4657263765
588.3190752,6041907.451987054
585.943966,6041602.879599591
583.5941226,6041428.975209104
581.2691637,6041421.200517602
578.9687155,6041389.69583388
576.692411,6041238.687280282
574.4398902,6041397.058146136
572.2107997,6041659.6803503465
570.0047927,6041346.204108434
567.8215287,6041464.168385121
565.6606737000001,6041918.514547463
563.5218996,6041114.982463019
561.4048845,6040961.530195952
559.3093121,6041280.536651984
557.2348721,6041407.035316741
555.1812597,6041367.05485768
553.1481756000001,6041183.820999293
551.1353259,6041383.625845588
549.1424218999999,6041310.44046771
547.1691801,6041902.339473541
545.2153222000001,6041491.952264817
543.2805745000001,6041314.679032792
541.3646685,6041606.463082923
539.46734,6041547.226054641
537.5883299,6041422.316908111
535.7273833,6041526.617234702
533.8842498,6041011.512896554
532.0586836,6041527.467034519
530.2504428000001,6041438.938311283
528.45929,6041400.856405253
526.6849915,6041603.877489065
524.927318,6041674.640992347
523.186044,6041595.793534735
521.4609475999999,6041437.207749591
519.7518110000001,6041151.827197557
518.0584200000001,6040744.577916763
516.3805639,6041586.3698500125
514.7180356,6041140.654160038
513.0706316000001,6041439.784777927
511.43815149999995,6041168.417961097
509.82039860000003,6041251.4157439675
508.2171791999999,6041553.971441813
506.628303,6041497.760830691
505.05358269999994,6041215.789527512
503.4928341,6041446.083568952
501.9458762,6041826.6593672335
500.41253059999997,6041095.581327982
498.8926222,6041185.601137977
497.3859785,6041428.983952646
495.89242989999997,6041501.48331183
494.4118094,6041756.401340728
492.943953,6041708.647506127
491.488699,6041429.302032163
490.04588839999997,6041667.62986092
488.6153648,6041610.867484955
487.19697429999997,6041746.615505408
485.7905654,6041410.01603183
484.39598889999996,6041562.714705754
483.01309800000007,6041419.927263226
481.64174840000004,6041378.975440122
480.28179789999996,6041546.346655844
478.93310639999993,6041365.5397239765
477.59553619999997,6040813.216050117
476.2689517,6041473.9528702665
474.9532192,6040742.10751571
473.6482074,6036116.35839407
472.35378679999997,6027683.462862854
471.06982989999995,6012013.892023138
469.79621110000005,5988469.740226348
468.53280700000005,5954591.300679432
467.2794956999999,5908210.047374274
466.0361575,5848284.779786416
464.80267410000005,5774557.9644578565
463.5789295,5686943.20769614
462.364809,5588075.054853511
461.1601998,5477643.106370479
459.9649909,5356408.09750961
458.7790727,5225339.30774606
457.6023374,5084908.291936837
456.4346788,4937812.698901098
455.2759921,4785052.949371623
454.12617439999997,4627083.766895397
452.9851239,4465592.762286275
451.85274060000006,4303430.445071343
450.7289258,4142744.499441707
449.6135822,3986304.369873909
448.5066141,3834626.499106015
447.407927,3690575.586676205
446.317428,3555480.684005805
445.23502520000005,3429071.2343099555
444.1606283,3311733.448429157
443.0941482,3203588.931338422
442.03549699999996,3104038.5335469693
440.9845882,3012715.099768002
439.9413364,2929249.200467899
438.9056575,2852479.8399999123
437.87746860000004,2781941.03817238
436.85668780000003,2717159.5081951087
435.8432345,2656456.1790903583
434.83702930000004,2599129.312682901
433.83799369999997,2544157.6711727297
432.84605039999997,2490944.3962419685
431.8611232,2437575.2353299228
430.8831369,2383013.1737285033
429.9120175,2326701.641931141
428.94769169999995,2267535.7258391757
427.9900874,2205851.031128713
427.03913370000004,2140966.9797638603
426.0947602,2073314.4390889285
425.1568978,2003356.8713448613
424.22547829999996,1932274.7237314729
423.3004343,1860578.8977266413
422.3816994,1789594.6234198718
421.4692081,1720192.0158998482
420.56289569999996,1652635.8349221826
419.66269850000003,1587330.466310156
418.7685535,1523989.5358683472
417.8803987,1462348.309288348
416.9981727,1402102.7804420795
416.12181519999996,1342616.929136011
415.25126639999996,1283225.1992634279
414.38646760000006,1223760.44732705
413.5273605,1164157.6872911672
412.673888,1104549.780564941
411.8259934,1045468.1033304449
410.9836208,987672.8395734145
410.14671519999996,931796.8230382258
409.3152221,878906.6127993533
408.48908789999996,829474.3868027114
407.66825960000006,783670.5198962478
406.8526847,742115.607511083
406.0423117,704387.7636486703
405.2370896,670591.4245351151
404.43696800000004,640049.4891189116
403.64189730000004,612397.8090544216
402.8518283,587043.2398880911
402.0667126,563389.6924840399
401.28650239999996,541062.788764964
400.5111505,519510.48427524685
399.7406101,498638.0905369307
398.9748353,477985.37128797977
398.2137806,457408.6202222651
397.457401,436994.18899432826
396.7056521,416671.7618657066
395.9584903,396359.64384841005
395.2158722,376184.2120844125
394.4777551,356214.5314658896
393.7440968,336554.33731020417
393.0148555,317295.9531685958
392.2899901,298513.20956675103
391.56946,280241.0181313973
390.853225,262575.5287503908
390.1412452,245541.78119294022
389.43348169999996,229220.83380578272
388.7298955,213629.79711345138
388.03044839999995,198814.46374338566
387.3351027,184694.4202677566
386.6438209,171380.08576950332
385.95656610000003,158851.38815823017
385.2733019,147088.08908014873
384.5939922,136070.7948251199
383.9186014,125765.15872624742
383.2470943,116243.91069456124
382.5794362,107368.38117106471
381.9155926,99184.86582754733
381.2555296,91592.70700845377
380.59921360000004,84646.49214509783
379.9466115,78248.33566356855
379.29769039999996,72425.71197048863
378.652418,67108.13456045093
378.0107622,62275.45531524253
377.37269130000004,57884.926304694774
376.73817410000004,53912.044520329386
376.1071796,50302.91992536939
375.47967719999997,47033.27711044246
374.8556368,44066.248078402336
374.2350283,41365.27275218129
373.6178223,38885.234332319575
373.0039896,36625.91500690822
372.3935012,34541.38875479745
371.78632860000005,32658.47347957886
371.1824436,30917.14879632808
370.5818182,29319.81287173512
369.98442489999996,27839.89343611922
369.39023629999997,26468.49883568126
368.7992255,25197.78951084186
368.2113658,24000.02001943771
367.6266307,22877.703278611993
367.0449943,21807.573236902845
366.4664305,20787.24974494109
365.89091410000003,19836.756661730495
365.3184196,18921.7068327286
364.7489221,18041.055424723345
364.18239689999996,17187.12708791491
363.61881960000005,16388.249979608943
363.058166,15603.667854698819
362.50041219999997,14850.57036027219
361.94553460000003,14116.412482304397
361.3935098,13402.02186438663
360.8443147,12725.586065823458
360.29792630000003,12064.39004822196
359.754322,11417.833821929964
359.2134795,10782.244479185609
358.6753765,10173.57460758568
358.1399912,9592.102047617342
357.6073018,9021.158395232242
357.077287,8477.48236929628
356.5499253,7959.175021486059
356.025196,7454.478018083857
355.50307799999996,6994.916169715976
354.983551,6557.585153561096
354.4665945,6147.688399508051
353.95218839999995,5761.2570137831235
353.4403127,5403.326532657124
352.9309478,5050.085290587206
352.42407410000004,4729.641306033758
351.9196722,4421.387428997091
351.4177232,4122.0291006292855
350.91820789999997,3830.4337812166414
350.4211078,3572.7880499981898
349.9264043,3307.9013642285468
349.434079,3078.4564706579986
348.9441137,2858.902673801968
348.45649060000005,2660.275144690801
347.97119169999996,2473.865203762616
347.48819960000003,2302.104144640133
347.0074967,2152.0051316335707
346.5290657,2014.6817333685492
346.0528897,1887.8738499418798
345.5789517,1761.8716712583719
345.1072349,1645.078450281286
344.6377228,1530.4478028482386
344.17039889999995,1427.2553499329133
343.70524710000007,1326.527468301416
343.24225110000003,1221.8993449551076
342.7813952,1131.9827343884378
342.32266339999995,1043.3980572243988
341.8660403,952.6116855662314
341.4115102,871.2140611991118
340.959058,793.4972948070192
340.5086685,717.4843379042011
340.06032660000005,652.7144951915801
339.6140175,582.4056804622157
339.1697264,522.3645863409448
338.7274388,468.53251904765455
338.28714019999995,416.1293630226293
337.8488164,370.17381362860925
337.41245310000005,330.13061233241064
336.9780363,282.2170672139361
336.5455522,250.32451515746482
336.114987,221.68930645308083
335.686327,182.93784434441932
335.2595588,160.95035740788728
334.834669,132.70086286762148
334.4116443,117.96626959794389
333.9904716,93.46751789509608
333.57113799999996,85.264567665443
333.1536305,66.55652745104338
332.73793639999997,51.620761558477966
332.32404310000004,44.92718705325902
331.91193799999996,37.945246350336426
331.5016088,26.646726645465318
331.0930432,21.736690811886557
330.6862289,19.28196475888452
330.281154,11.0412375784217
329.8778065,7.772369109981161
329.47617460000004,7.237441956355267
329.07624649999997,1.0612348466314097
328.6780106,1.056904603897112
328.2814555,-2.530513525531144
327.88656960000003,1.8432940927516357
327.4933418,3.199695026004437
327.1017607,1.3136144954780162
326.7118154,-0.9275467289473728
326.32349480000005,-0.8778450405300202
325.93678789999996,2.2121332447368074
325.5516841,-2.753418381048792
325.16817260000005,-0.20227071717068854
324.7862428,-3.5087627964103465
324.40588419999995,-1.2460820799124177
324.0270864,-1.3527335819596955
323.649839,-1.5485453619760603
323.2741319,1.5466125698989746
322.8999548,-0.0025759372041489533
322.5272977,-0.23282442812131646
322.1561508,-0.7362361701714386
321.786504,0.061718254869776376
321.4183476,2.1408202601120703
321.0516719,1.0792114995116666
320.6864673,-3.6282005235114303
320.3227243,-4.344713523864784
319.96043330000003,-1.9023151105050704
319.5995851,-4.4394334168628875
319.2401704,7.037027799288898
318.8821799,-1.8802423280639176
318.5256045,0.06030646753747657
318.1704352,-1.4052303412700358
317.8166631,-3.2763265555081595
317.4642791,2.2701723508067326
317.1132746,3.4340697828093742
316.76364069999994,-1.2947438641427238
316.4153688,-3.468923438353852
316.06845039999996,1.024636234293407
315.72287689999996,4.15240004614961
315.37863980000003,1.3778352137156984
315.0357308,0.13979026320946633
314.6941415,-3.714363098673005
314.3538639,-5.260142041907957
314.0148896,2.3381887536575827
313.6772106,2.969582417607335
313.3408189,-0.5573352106142963
313.00570639999995,-2.7844445623983054
312.67186549999997,1.0566079952023348
312.33928810000003,2.1902705096175263
312.0079665,0.9946254373860528
311.6778931,-0.1526022361903227
311.34906010000003,-3.851759976077432
311.0214601,-1.9772797114765304
310.6950856,1.5424868840467654
310.369929,0.5105621392048375
310.04598300000004,-0.5016000190117842
309.7232403,-0.18503957961684914
309.4016935,2.9514448141585268
309.0813356,0.9238765847737516
308.7621594,-2.4090834050692536
308.4441577,-0.9397142995898567
308.1273236,0.8505422458681099
307.8116501,-0.2053121116678356
307.49713019999996,-0.9093836156807108
307.18375710000004,-1.6489973683871808
306.871524,5.262197749427656
306.5604242,3.401422615736996
306.2504509,-1.1124521733549295
