wave,flux
1817.164934,8.6067670480871
1790.1022050000001,3.8712624362788164
1763.812741,0.4563172584729474
1738.2646949999998,17.400872697519922
1713.427949,48.32786657506561
1689.273995,426.2066511949465
1665.7758310000002,1321.734844833101
1642.907862,2741.9050210477685
1620.64581,4679.555652666004
1598.9666300000001,7168.801808319583
1577.8484310000001,10230.729291013497
1557.270407,13811.071879114743
1537.212767,17947.389096234958
1517.65668,22095.247759732847
1498.5842089999999,25878.508172607573
1479.978265,29372.076615262813
1461.822555,32598.71230666636
1444.101535,35492.3302960953
1426.800368,38062.26772427008
1409.904887,40313.86764509627
1393.401553,42195.69434342352
1377.2774220000001,44016.05013249751
1361.520115,45917.235458034935
1346.117782,47780.51174780392
1331.059081,49702.866233438544
1316.3331449999998,51673.19226883507
1301.92956,53594.360092571835
1287.838342,55589.29244645387
1274.049912,57589.79782707633
1260.5550779999999,59567.48633093294
1247.345017,61645.02751798488
1234.4112519999999,63753.05919279983
1221.74564,66003.56450144803
1209.340352,68289.64433229518
1197.187859,70672.65913036907
1185.28092,73109.72396964431
1173.612564,75608.99070652768
1162.1760800000002,78089.02332415532
1150.9650060000001,80768.28389898784
1139.973115,83390.88529654675
1129.194406,85929.5438574164
1118.623093,88468.77012060829
1108.253594,91041.0929394054
1098.0805269999998,93513.64017017449
1088.098695,95990.71041219962
1078.303081,98523.51078677074
1068.688841,101263.11200904762
1059.251295,104263.65221202576
1049.9859199999999,107563.96210208838
1040.8883449999998,111411.28107680817
1031.9543429999999,115769.266048894
1023.1798259999999,120836.04601090855
1014.5608390000001,126510.83167975525
1006.0935529999999,132865.22950340994
997.774265,139634.73156225865
989.5993858999999,146914.45000719107
981.5654412999999,154508.65970765072
973.6690651,162042.48253850586
965.9069952,169477.99704119252
958.2760697000001,176837.53693358775
950.7732231000001,183579.13830321288
943.3954827,189840.41101131987
936.1399648,195744.40355027711
929.0038716,200910.16531837656
921.9844879000001,205772.36128442574
915.0791782,210168.3119793263
908.2853836000002,214236.8128780293
901.6006193,218899.48950948322
895.0224714,223515.9056889025
888.548595,228635.21672124235
882.1767113,235116.43249382655
875.9046055,242466.14773401702
869.7301242999998,251608.90981374183
863.6511742999999,262778.921801765
857.6657193,276230.8869528598
851.7717787,291791.9589747631
845.9674256000001,311325.92201029015
840.2507849,335586.9439895783
834.6200316000001,364583.4291480853
829.0733892000001,398863.7124728769
823.6091279,437955.9735093234
818.2255633999999,482032.51882233063
812.9210552000001,532423.9132848248
807.694005,583412.5686179368
802.5428559,635779.3948592222
797.4660904,689588.9789424519
792.4622299,744261.0696592189
787.5298327,798519.3962418544
782.6674933999999,859379.2710864508
777.8738417999999,929926.6307130607
773.1475413,1011593.280190413
768.4872882999999,1117641.6898907279
763.8918112000001,1251142.3478711478
759.3598692,1416722.490720239
754.8902515999999,1617146.525731693
750.4817767999999,1848727.6985044412
746.1332914,2111572.6618506024
741.8436694000001,2391783.5512530296
737.6118116,2681692.274608508
733.4366444,2966993.040860967
729.3171195,3240552.1916867527
725.2522127999999,3495657.896872526
721.2409241,3736837.0710196206
717.282276,3971949.1305467663
713.3753136,4195607.614476134
709.5191037000001,4413874.055200295
705.7127343,4629022.5181126995
701.9553139,4844808.334459798
698.2459709,5069164.014713245
694.5838534,5289082.381359756
690.9681281000001,5484897.616942101
687.3979803,5648364.834408677
683.8726131,5779068.964965791
680.3912472999999,5887090.742552166
676.9531202000001,5959350.414886568
673.557486,6011024.159197326
670.2036149,6035951.4724759385
666.8907926,6043141.4436438335
663.6183202999999,6042120.42915489
660.3855139,6039778.775936176
657.1917038,6041740.987790532
654.0362346,6041699.80378503
650.9184646000001,6041254.823826282
647.8377654,6041032.903465043
644.7935217999999,6041584.8123538885
641.7851312999999,6042194.0642512785
638.8120038,6039764.753700084
635.8735614,6044594.751347077
632.9692378999999,6041719.428011271
630.0984786,6041465.502597042
627.2607402000001,6039859.651767513
624.4554901,6040513.600844095
621.6822068,6041112.258994516
618.940379,6041844.518818945
616.2295054,6041735.274186455
613.549095,6041580.187395076
610.8986664,6041632.7883758135
608.2777476,6041484.184811894
605.6858758999999,6041064.210631281
603.1225977000001,6041381.080149273
600.5874682,6041641.193009161
598.0800512,6041369.609783155
595.5999188999999,6042139.940314711
593.1466518,6041711.888418281
590.7198384999999,6041075.260662268
588.3190752,6040835.174053257
585.943966,6041850.311849537
583.5941226,6041185.8791260775
581.2691637,6041351.090904046
578.9687155,6041104.343914446
576.692411,6041321.465414488
574.4398902,6041495.19311142
572.2107997,6041431.7987884665
570.0047927,6041566.375263105
567.8215287,6041007.7519365335
565.6606737000001,6040655.870783567
563.5218996,6041474.895330222
561.4048845,6041508.670079655
559.3093121,6041564.03510674
557.2348721,6041272.656615473
555.1812597,6041629.360456542
553.1481756000001,6041399.869471847
551.1353259,6041464.0253433585
549.1424218999999,6041646.655947248
547.1691801,6041524.813971292
545.2153222000001,6041302.950912598
543.2805745000001,6041443.86202771
541.3646685,6041196.732384164
539.46734,6041757.694470136
537.5883299,6041712.010804933
535.7273833,6040979.672570567
533.8842498,6041722.542831733
532.0586836,6041309.968869645
530.2504428000001,6041265.289689083
528.45929,6041227.3662558785
526.6849915,6042069.435165895
524.927318,6041195.658567327
523.186044,6041545.76349644
521.4609475999999,6040816.2695966875
519.7518110000001,6041144.543033856
518.0584200000001,6041120.167648287
516.3805639,6041225.145552786
514.7180356,6041076.799707548
513.0706316000001,6041199.047274035
511.43815149999995,6041830.353253063
509.82039860000003,6041667.3919398375
508.2171791999999,6041376.33594778
506.628303,6041625.936859473
505.05358269999994,6041398.047776815
503.4928341,6041387.32101329
501.9458762,6041690.4579256475
500.41253059999997,6041582.463453028
498.8926222,6041667.5572769325
497.3859785,6041720.089019703
495.89242989999997,6041713.323064718
494.4118094,6041569.048648714
492.943953,6041662.374872208
491.488699,6041148.790188294
490.04588839999997,6041588.130528754
488.6153648,6041467.954759212
487.19697429999997,6041306.776369875
485.7905654,6041385.571331533
484.39598889999996,6041618.168443258
483.01309800000007,6041005.1797232535
481.64174840000004,6041233.744295911
480.28179789999996,6041452.924906427
478.93310639999993,6041397.310813225
477.59553619999997,6041063.557268409
476.2689517,6041316.337113097
474.9532192,6041263.357292841
473.6482074,6041003.869482271
472.35378679999997,6041757.46728768
471.06982989999995,6041429.815843588
469.79621110000005,6041488.860039509
468.53280700000005,6041606.750524137
467.2794956999999,6041763.672170643
466.0361575,6041861.551827338
464.80267410000005,6041356.234389751
463.5789295,6041287.175289028
462.364809,6041375.764105692
461.1601998,6041422.976897203
459.9649909,6041430.13259648
458.7790727,6041386.171560676
457.6023374,6041061.164762395
456.4346788,6041226.274628405
455.2759921,6041431.843366712
454.12617439999997,6041285.025301252
452.9851239,6041327.299389537
451.85274060000006,6041153.926843594
450.7289258,6041387.41857811
449.6135822,6041744.244023216
448.5066141,6041112.980663475
447.407927,6041156.242260144
446.317428,6041869.763466423
445.23502520000005,6041462.43064583
444.1606283,6041493.124009946
443.0941482,6041729.837894814
442.03549699999996,6041379.7285069935
440.9845882,6041536.907417966
439.9413364,6041387.7453901535
438.9056575,6041312.934976428
437.87746860000004,6041163.322968451
436.85668780000003,6041577.389759797
435.8432345,6041351.24694105
434.83702930000004,6041408.459668042
433.83799369999997,6041169.357241227
432.84605039999997,6040971.990760459
431.8611232,6038678.497068103
430.8831369,6031107.604240018
429.9120175,6016364.190869095
428.94769169999995,5992593.903525784
427.9900874,5958664.694913975
427.03913370000004,5913758.57642449
426.0947602,5857539.210452935
425.1568978,5789884.45979543
424.22547829999996,5713839.213996275
423.3004343,5635747.440619409
422.3816994,5559314.916042507
421.4692081,5487497.190523438
420.56289569999996,5421358.191985386
419.66269850000003,5362994.315657409
418.7685535,5312547.149245975
417.8803987,5269226.9462105865
416.9981727,5229808.319986884
416.12181519999996,5189990.106013807
415.25126639999996,5146581.539875747
414.38646760000006,5095995.114692212
413.5273605,5034911.1885199435
412.673888,4960606.263629488
411.8259934,4872293.303424648
410.9836208,4769166.1192623
410.14671519999996,4650155.871185428
409.3152221,4518122.991814989
408.48908789999996,4374897.577217141
407.66825960000006,4223299.848285409
406.8526847,4066579.5597985163
406.0423117,3908502.000056906
405.2370896,3752610.1137918383
404.43696800000004,3602125.8140009083
403.64189730000004,3459017.9635016625
402.8518283,3325072.62759518
402.0667126,3200850.847580834
401.28650239999996,3085666.570615804
400.5111505,2978932.81622838
399.7406101,2877143.383371841
398.9748353,2778253.3665392967
398.2137806,2681145.478620808
397.457401,2583445.358970481
396.7056521,2484371.8556299107
395.9584903,2383457.132765058
395.2158722,2280399.747825106
394.4777551,2176515.1383076124
393.7440968,2075244.8354045672
393.0148555,1977056.779086321
392.2899901,1883590.6059876613
391.56946,1796246.159188936
390.853225,1715952.119506153
390.1412452,1642314.19054288
389.43348169999996,1575602.0446940826
388.7298955,1515107.67188086
388.03044839999995,1459405.0945542594
387.3351027,1407764.478189263
386.6438209,1360095.3254909932
385.95656610000003,1314987.9779084574
385.2733019,1272222.1602193587
384.5939922,1231556.511186083
383.9186014,1192785.2853512834
383.2470943,1155454.3573352979
382.5794362,1119403.3591704324
381.9155926,1084727.7897384998
381.2555296,1050776.2726523129
380.59921360000004,1018170.1437612366
379.9466115,986573.3090437341
379.29769039999996,956172.4004644544
378.652418,926956.1192133584
378.0107622,899454.7798446915
377.37269130000004,873610.5606614753
376.73817410000004,849722.8532318521
376.1071796,827939.3788356674
375.47967719999997,808120.4235376582
374.8556368,790531.4131951344
374.2350283,774746.6379151392
373.6178223,760682.4127438598
373.0039896,748096.7081983639
372.3935012,736453.291545182
371.78632860000005,725649.6204995451
371.1824436,715049.4077292277
370.5818182,704808.0324850209
369.98442489999996,694460.6565231982
369.39023629999997,684335.4832444576
368.7992255,674323.9041422065
368.2113658,664539.0603926699
367.6266307,655555.8841995518
367.0449943,647846.6427917379
366.4664305,641306.0611515376
365.89091410000003,636611.7575338036
365.3184196,633961.9671288086
364.7489221,633100.3134473234
364.18239689999996,634077.8404113876
363.61881960000005,636448.7744426287
363.058166,640004.6742648005
362.50041219999997,643767.5718952817
361.94553460000003,647134.1880783937
361.3935098,649344.9550846127
360.8443147,649854.3815196697
360.29792630000003,647838.9489405622
359.754322,643123.8119067465
359.2134795,635587.7014874619
358.6753765,625044.3651897961
358.1399912,611785.6547669553
357.6073018,596291.1554143653
357.077287,579033.1299724777
356.5499253,560562.1092705085
356.025196,541424.577249976
355.50307799999996,522215.40684708604
354.983551,503312.31304890313
354.4665945,485103.7784259381
353.95218839999995,467819.4109187146
353.4403127,451591.1551252393
352.9309478,436569.01933642157
352.42407410000004,422691.4806055232
351.9196722,410169.13365519705
351.4177232,398658.1743275457
350.91820789999997,388379.508131126
350.4211078,379231.8004734484
349.9264043,370948.5668470301
349.434079,363692.9930101542
348.9441137,357116.5775723513
348.45649060000005,351117.2348424944
347.97119169999996,345457.59674955986
347.48819960000003,339786.69485570147
347.0074967,333828.91962240194
346.5290657,327293.95588383754
346.0528897,319927.93784593925
345.5789517,311471.46532802994
345.1072349,301953.6436075384
344.6377228,291171.8753779968
344.17039889999995,279361.95030008873
343.70524710000007,266758.07578039577
343.24225110000003,253542.3140824961
342.7813952,240082.9391759707
342.32266339999995,226753.21307407125
341.8660403,213797.49926351637
341.4115102,201642.79714639246
340.959058,190390.0721918672
340.5086685,180120.86026326453
340.06032660000005,171003.10047862
339.6140175,162853.65290095162
339.1697264,155607.96159187573
338.7274388,149136.83777829906
338.28714019999995,143289.3382869952
337.8488164,137788.13057835028
337.41245310000005,132524.45512104232
336.9780363,127334.99483045685
336.5455522,122114.02673438586
336.114987,116737.29549000502
335.686327,111207.11120649733
335.2595588,105457.77378003947
334.834669,99567.72182079984
334.4116443,93582.28564183033
333.9904716,87532.63357163247
333.57113799999996,81555.37742394673
333.1536305,75637.64165422592
332.73793639999997,69906.08165185683
332.32404310000004,64410.93822965957
331.91193799999996,59134.03579768081
331.5016088,54146.756543379415
331.0930432,49472.74349869666
330.6862289,45030.400847343546
330.281154,40950.7840689949
329.8778065,37144.236157892854
329.47617460000004,33666.964175660425
329.07624649999997,30467.825069157632
328.6780106,27605.571158390234
328.2814555,25018.310268176967
327.88656960000003,22769.237923453857
327.4933418,20804.266525611885
327.1017607,19106.409150128708
326.7118154,17648.613670779352
326.32349480000005,16405.21475032712
325.93678789999996,15339.817907882472
325.5516841,14444.061705323134
325.16817260000005,13647.52049506119
324.7862428,12958.767775203647
324.40588419999995,12331.009445919353
324.0270864,11808.938596824153
323.649839,11275.908643393712
323.2741319,10831.182076933348
322.8999548,10404.685299460623
322.5272977,10002.863226644144
322.1561508,9637.313752573036
321.786504,9263.628092693487
321.4183476,8940.248799871251
321.0516719,8615.510476730866
320.6864673,8309.481120156013
320.3227243,8015.074052036137
319.96043330000003,7728.823163679355
319.5995851,7444.803279456025
319.2401704,7158.18414128907
318.8821799,6880.183732800355
318.5256045,6591.6340442801975
318.1704352,6300.053581089854
317.8166631,6006.912136659266
317.4642791,5725.251746779838
317.1132746,5428.274324096638
316.76364069999994,5153.979014048642
316.4153688,4875.214265899015
316.06845039999996,4616.519395620326
315.72287689999996,4366.311412197499
315.37863980000003,4128.456871653072
315.0357308,3912.900467004901
314.6941415,3712.293916438155
314.3538639,3529.273446787736
314.0148896,3344.6238308690404
313.6772106,3189.2557847899016
313.3408189,3036.1508425206675
313.00570639999995,2878.368150201967
312.67186549999997,2739.563088231006
312.33928810000003,2608.3291560388698
312.0079665,2486.190739289941
311.6778931,2365.584533792339
311.34906010000003,2249.1964140010878
311.0214601,2144.3762247110863
310.6950856,2038.9697974824012
310.369929,1943.5807405834369
310.04598300000004,1849.5014849988434
309.7232403,1752.2945607865452
309.4016935,1661.62888436561
309.0813356,1568.7444862053126
308.7621594,1480.748242862395
308.4441577,1388.2209275890937
308.1273236,1285.3606629599105
307.8116501,1198.8234392675515
307.49713019999996,960.338560203586
307.18375710000004,765.1204743968773
306.871524,584.0860989406125
306.5604242,422.98616879960235
306.2504509,293.103670001595
