wave,flux
1817.164934,-8.463481926889584
1790.1022050000001,2.0282003508520257
1763.812741,51.873320125418736
1738.2646949999998,33.373634013133795
1713.427949,83.62667195025878
1689.273995,1841.54201172614
1665.7758310000002,5952.915888444347
1642.907862,12399.568897923069
1620.64581,21310.629415447675
1598.9666300000001,32542.046736253647
1577.8484310000001,46064.088636895096
1557.270407,61960.142276884115
1537.212767,80286.24704290043
1517.65668,97875.12887286057
1498.5842089999999,113480.89161241664
1479.978265,127189.82539641047
1461.822555,138946.91572311902
1444.101535,148768.71991872636
1426.800368,156669.6184581162
1409.904887,162545.8209611926
1393.401553,166423.78564071225
1377.2774220000001,169769.3376188956
1361.520115,173172.17875605344
1346.117782,176363.7720179648
1331.059081,179686.63163272454
1316.3331449999998,182958.36370876315
1301.92956,186476.76435549735
1287.838342,189811.0326156838
1274.049912,193254.63415848537
1260.5550779999999,196706.53179191775
1247.345017,200148.72938763932
1234.4112519999999,203695.49483653356
1221.74564,207223.27523889442
1209.340352,210940.58698971296
1197.187859,214542.4372659412
1185.28092,218281.36234763023
1173.612564,222073.1211196216
1162.1760800000002,225942.9179340927
1150.9650060000001,229662.94228029554
1139.973115,233574.3854694163
1129.194406,237422.0745566772
1118.623093,241387.6610840036
1108.253594,245241.5289032905
1098.0805269999998,248764.5856029011
1088.098695,252995.37087640262
1078.303081,257319.84669664392
1068.688841,262472.2274919777
1059.251295,268589.5943455607
1049.9859199999999,276441.05088447104
1040.8883449999998,286509.17661143816
1031.9543429999999,298906.26045719074
1023.1798259999999,313948.2217491215
1014.5608390000001,332146.5744729328
1006.0935529999999,352365.1711281325
997.774265,374808.9736866392
989.5993858999999,398771.20298527257
981.5654412999999,423426.86437610775
973.6690651,447603.90508004953
965.9069952,470592.81749512616
958.2760697000001,491810.0116642845
950.7732231000001,510755.8047742186
943.3954827,526406.8962261758
936.1399648,539046.4312222389
929.0038716,548538.0541959875
921.9844879000001,554803.8191042908
915.0791782,559308.3342665597
908.2853836000002,562325.4762366625
901.6006193,565742.4966979369
895.0224714,570555.3560170188
888.548595,578395.846969104
882.1767113,590654.1641784699
875.9046055,608559.9466940638
869.7301242999998,633362.6673073001
863.6511742999999,667067.7540029171
857.6657193,710499.9872398874
851.7717787,765718.773055148
845.9674256000001,833634.2556783014
840.2507849,919193.5771198124
834.6200316000001,1018277.9262546587
829.0733892000001,1141269.3194795095
823.6091279,1277327.5335348991
818.2255633999999,1429499.3527694684
812.9210552000001,1592571.040663691
807.694005,1764306.8029576982
802.5428559,1935271.7348397456
797.4660904,2103511.2145248367
792.4622299,2276483.651002778
787.5298327,2456797.4350806773
782.6674933999999,2655778.6025510225
777.8738417999999,2889300.827894702
773.1475413,3154081.75150738
768.4872882999999,3444869.7013640506
763.8918112000001,3769308.992106042
759.3598692,4123734.709780843
754.8902515999999,4487895.903338067
750.4817767999999,4850804.938272237
746.1332914,5167775.698471611
741.8436694000001,5439458.563519213
737.6118116,5651949.665585414
733.4366444,5816763.358210983
729.3171195,5927869.760967772
725.2522127999999,5998315.92004524
721.2409241,6033758.163342978
717.282276,6040070.096312348
713.3753136,6044188.388540451
709.5191037000001,6039347.987470074
705.7127343,6043365.774156783
701.9553139,6038769.34847909
698.2459709,6041678.637506647
694.5838534,6040196.553577392
690.9681281000001,6041640.122395342
687.3979803,6041719.504145048
683.8726131,6044782.972855382
680.3912472999999,6042424.184748688
676.9531202000001,6041042.667737525
673.557486,6038924.0389537215
670.2036149,6040091.27631074
666.8907926,6040335.890224185
663.6183202999999,6043903.308975946
660.3855139,6040404.219167624
657.1917038,6041277.983981914
654.0362346,6041080.826453215
650.9184646000001,6040898.586597396
647.8377654,6041293.941793903
644.7935217999999,6042439.854018539
641.7851312999999,6042059.199249933
638.8120038,6041361.161480162
635.8735614,6041936.761320433
632.9692378999999,6040808.5390605
630.0984786,6042265.017117745
627.2607402000001,6041413.676429193
624.4554901,6041129.836745561
621.6822068,6041071.5449784035
618.940379,6041412.035430859
616.2295054,6041878.798980991
613.549095,6041165.015239943
610.8986664,6041152.832360713
608.2777476,6041184.1820803685
605.6858758999999,6041576.7784576025
603.1225977000001,6041333.46218079
600.5874682,6041075.500480806
598.0800512,6041071.527166093
595.5999188999999,6041124.294372686
593.1466518,6041276.066154103
590.7198384999999,6041405.4420931265
588.3190752,6041375.7299182275
585.943966,6041356.536382647
583.5941226,6041629.3355096085
581.2691637,6041577.180746612
578.9687155,6041820.771334351
576.692411,6041670.882918161
574.4398902,6041955.568875057
572.2107997,6041589.669488409
570.0047927,6041447.894054527
567.8215287,6041351.713022736
565.6606737000001,6041287.645795152
563.5218996,6041825.5808171425
561.4048845,6041006.952019908
559.3093121,6041663.423079773
557.2348721,6041456.099737824
555.1812597,6041279.8701194525
553.1481756000001,6041243.376700532
551.1353259,6041279.976686662
549.1424218999999,6041649.811674786
547.1691801,6041090.6153483065
545.2153222000001,6041428.401898129
543.2805745000001,6041837.596094668
541.3646685,6041216.250637619
539.46734,6041421.188205818
537.5883299,6041109.103874528
535.7273833,6041330.609911516
533.8842498,6041807.785029623
532.0586836,6041747.431972433
530.2504428000001,6041115.614251204
528.45929,6041315.501008442
526.6849915,6041414.0252837315
524.927318,6041550.334159726
523.186044,6041248.922425631
521.4609475999999,6041406.157016584
519.7518110000001,6041396.06677221
518.0584200000001,6041674.311772725
516.3805639,6041639.35941879
514.7180356,6041526.838371067
513.0706316000001,6041461.5106361015
511.43815149999995,6041423.36577021
509.82039860000003,6041653.74093956
508.2171791999999,6041412.53077434
506.628303,6041320.18846566
505.05358269999994,6041289.311252769
503.4928341,6041170.305134192
501.9458762,6041403.370290485
500.41253059999997,6041517.403444034
498.8926222,6041560.613376003
497.3859785,6041127.050075761
495.89242989999997,6041468.726638302
494.4118094,6041523.18478129
492.943953,6041228.400350179
491.488699,6041429.957129047
490.04588839999997,6041468.590847507
488.6153648,6041698.329047265
487.19697429999997,6041787.653670069
485.7905654,6041417.6609267825
484.39598889999996,6041594.628591416
483.01309800000007,6041074.099323545
481.64174840000004,6041425.319578827
480.28179789999996,6040973.637807114
478.93310639999993,6041259.944680697
477.59553619999997,6041073.891659398
476.2689517,6041542.864206101
474.9532192,6041018.12655502
473.6482074,6041671.651388813
472.35378679999997,6041351.17818509
471.06982989999995,6041869.967726106
469.79621110000005,6041336.028418792
468.53280700000005,6041187.893823167
467.2794956999999,6041442.29249371
466.0361575,6040950.16428566
464.80267410000005,6041433.058051926
463.5789295,6041504.98764549
462.364809,6041533.634848118
461.1601998,6041768.8777309
459.9649909,6041423.384980656
458.7790727,6041631.77383784
457.6023374,6041706.5748505
456.4346788,6041089.961944865
455.2759921,6041303.405289384
454.12617439999997,6041714.708286495
452.9851239,6041232.7613882525
451.85274060000006,6041579.439215893
450.7289258,6041601.929373087
449.6135822,6041860.955545528
448.5066141,6041389.721820869
447.407927,6041417.99619664
446.317428,6041386.082618275
445.23502520000005,6041596.436400453
444.1606283,6041205.290512147
443.0941482,6041385.62461727
442.03549699999996,6041414.341221686
440.9845882,6041845.038557929
439.9413364,6041539.812508307
438.9056575,6041341.412957981
437.87746860000004,6041880.6995490575
436.85668780000003,6041351.171429365
435.8432345,6041221.472232512
434.83702930000004,6041672.842268088
433.83799369999997,6041065.58931458
432.84605039999997,6037780.093738826
431.8611232,6023772.668205608
430.8831369,5994744.551011555
429.9120175,5946638.2334114285
428.94769169999995,5874150.885021483
427.9900874,5774362.3155981675
427.03913370000004,5646863.914081292
426.0947602,5488560.1019918835
425.1568978,5307615.44557716
424.22547829999996,5115238.260854845
423.3004343,4923497.924989319
422.3816994,4741626.639824856
421.4692081,4578615.23734128
420.56289569999996,4441181.783548555
419.66269850000003,4333773.839932119
418.7685535,4257969.628594556
417.8803987,4209279.40832378
416.9981727,4179848.0956711136
416.12181519999996,4160829.10382952
415.25126639999996,4143956.71752457
414.38646760000006,4121178.958895812
413.5273605,4084629.8538613115
412.673888,4030919.6902649114
411.8259934,3957134.52897679
410.9836208,3862973.429289066
410.14671519999996,3749977.6586206993
409.3152221,3621312.771964605
408.48908789999996,3481320.305963715
407.66825960000006,3334195.2418165514
406.8526847,3185661.050393657
406.0423117,3039936.4856514432
405.2370896,2900408.8922433923
404.43696800000004,2770321.044868466
403.64189730000004,2651072.7978352825
402.8518283,2543245.954495319
402.0667126,2446591.964520951
401.28650239999996,2359409.21152988
400.5111505,2280104.88621128
399.7406101,2204777.2953355857
398.9748353,2131163.1208408345
398.2137806,2057518.2594818573
397.457401,1981806.7121305643
396.7056521,1903665.024258076
395.9584903,1822994.306651092
395.2158722,1740515.1852097646
394.4777551,1658565.3137957298
393.7440968,1581027.2879350528
393.0148555,1510026.7993770426
392.2899901,1447169.384897341
391.56946,1394963.2341589562
390.853225,1353591.684452426
390.1412452,1323464.789438133
389.43348169999996,1304059.222448013
388.7298955,1293386.0795303257
388.03044839999995,1288206.4248809845
387.3351027,1286812.4157635437
386.6438209,1286919.22644755
385.95656610000003,1286457.8942014358
385.2733019,1283387.1014055037
384.5939922,1276701.553139779
383.9186014,1265540.2736325988
383.2470943,1249592.6032391542
382.5794362,1229679.248089014
381.9155926,1206620.4837933977
381.2555296,1180880.2761876604
380.59921360000004,1153889.257116405
379.9466115,1127127.8336109943
379.29769039999996,1102080.1853522514
378.652418,1079805.055741317
378.0107622,1061340.434780955
377.37269130000004,1047492.4043165935
376.73817410000004,1038750.8540032464
376.1071796,1035041.6192813079
375.47967719999997,1036078.2151335805
374.8556368,1040958.0799700756
374.2350283,1048621.9691425785
373.6178223,1057686.530432967
373.0039896,1066514.8069081064
372.3935012,1073407.0390961235
371.78632860000005,1076786.7881568884
371.1824436,1075333.5805309636
370.5818182,1067976.4724151
369.98442489999996,1054124.6977509768
369.39023629999997,1033903.05052523
368.7992255,1007424.9062826526
368.2113658,975881.496228372
367.6266307,940551.6536760541
367.0449943,903152.6752961054
366.4664305,865222.5096334511
365.89091410000003,829021.5822138207
365.3184196,795936.0145756919
364.7489221,767113.5564225293
364.18239689999996,743837.7978198085
363.61881960000005,726613.6792221094
363.058166,715280.4967962418
362.50041219999997,709462.5293657808
361.94553460000003,708035.0156170144
361.3935098,710023.2208932295
360.8443147,713683.3763799444
360.29792630000003,717437.631050323
359.754322,719984.0461578289
359.2134795,720014.0195214932
358.6753765,716667.9696560082
358.1399912,709579.7104223905
357.6073018,698783.2138106744
357.077287,684933.25652453
356.5499253,668722.685998186
356.025196,651336.5777976908
355.50307799999996,633900.7050974716
354.983551,617125.2314981343
354.4665945,601781.9830512522
353.95218839999995,587886.6799566158
353.4403127,575386.5162196968
352.9309478,563647.3336767628
352.42407410000004,551827.5463985178
351.9196722,539250.5891194956
351.4177232,525122.6414157677
350.91820789999997,509031.6088993874
350.4211078,490840.91760423686
349.9264043,470760.0435251892
349.434079,449412.40568226815
348.9441137,427425.50246795005
348.45649060000005,405805.75690032437
347.97119169999996,385225.5594366575
347.48819960000003,366332.9414333519
347.0074967,349681.4628593065
346.5290657,335357.28401143564
346.0528897,323304.58818224765
345.5789517,313242.8113205704
345.1072349,304886.17421023856
344.6377228,297840.26338195556
344.17039889999995,292018.1204987444
343.70524710000007,287193.940050667
343.24225110000003,283438.3931426241
342.7813952,280853.2581757425
342.32266339999995,279512.6408471677
341.8660403,279465.5949638873
341.4115102,280718.1172340019
340.959058,282954.0395022205
340.5086685,286011.51462592435
340.06032660000005,289259.5459824324
339.6140175,292214.8938383746
339.1697264,294300.8902779561
338.7274388,294912.38427034987
338.28714019999995,293746.4760324052
337.8488164,290418.4677451271
337.41245310000005,284991.3050591032
336.9780363,277355.78913140314
336.5455522,267792.0909924371
336.114987,256723.5388080521
335.686327,244263.03304168658
335.2595588,230850.8191077346
334.834669,216729.20926678425
334.4116443,202213.30241027352
333.9904716,187561.12499172136
333.57113799999996,172876.71075643325
333.1536305,158289.2504943723
332.73793639999997,144057.92669058786
332.32404310000004,130279.44179149967
331.91193799999996,117088.7797904794
331.5016088,104647.60262419764
331.0930432,93074.71268349924
330.6862289,82475.6365172545
330.281154,72896.34836664662
329.8778065,64340.40491315728
329.47617460000004,56812.523873476726
329.07624649999997,50256.42233419794
328.6780106,44674.076015050596
328.2814555,39887.435963778
327.88656960000003,35829.560804326204
327.4933418,32402.855820409215
327.1017607,29518.074255717052
326.7118154,27095.043006761043
326.32349480000005,25065.12171696355
325.93678789999996,23314.57796182359
325.5516841,21854.321475063934
325.16817260000005,20589.77336310949
324.7862428,19481.662042556585
324.40588419999995,18533.8781053664
324.0270864,17695.49883820617
323.649839,16923.146973577426
323.2741319,16225.94390209452
322.8999548,15629.307315032336
322.5272977,15030.136476052588
322.1561508,14480.91149276788
321.786504,13970.601215762117
321.4183476,13485.162106532984
321.0516719,13024.215078667132
320.6864673,12579.874271675595
320.3227243,12144.246266762482
319.96043330000003,11735.5175206328
319.5995851,11297.880990652639
319.2401704,10896.20944244616
318.8821799,10488.979325122062
318.5256045,10059.590023794532
318.1704352,9636.273584254106
317.8166631,9198.714836621562
317.4642791,8779.866492645517
317.1132746,8333.108092912003
316.76364069999994,7905.524119130696
316.4153688,7488.232518390575
316.06845039999996,7065.59688910035
315.72287689999996,6681.768008350206
315.37863980000003,6311.615056713837
315.0357308,5981.417492697122
314.6941415,5684.29647735205
314.3538639,5425.226811006225
314.0148896,5174.447027270429
313.6772106,4968.23579344204
313.3408189,4768.3028977724625
313.00570639999995,4573.105206371123
312.67186549999997,4369.410876783965
312.33928810000003,4166.624235858559
312.0079665,3964.851636793128
311.6778931,3747.033318998313
311.34906010000003,3550.15862800934
311.0214601,3351.2651445192187
310.6950856,3161.243798613604
310.369929,3002.9066174281493
310.04598300000004,2862.5038077583117
309.7232403,2733.097690051944
309.4016935,2623.9554327906176
309.0813356,2521.094539765279
308.7621594,2430.666175790228
308.4441577,2333.296685948777
308.1273236,2242.072741585333
307.8116501,2148.7664010364497
307.49713019999996,1775.5816543779715
307.18375710000004,1444.9682708213074
306.871524,1147.830500657934
306.5604242,872.7117503992972
306.2504509,624.139797126521
