wave,flux
1817.164934,11.801509214417651
1790.1022050000001,6.073072177575884
1763.812741,9.223779318651225
1738.2646949999998,24.417910854953018
1713.427949,116.77928812491064
1689.273995,519.1160746883668
1665.7758310000002,1395.5042964235915
1642.907862,2891.354571504895
1620.64581,4980.360704904377
1598.9666300000001,7856.420989402881
1577.8484310000001,11482.891399529934
1557.270407,15921.208877965995
1537.212767,21350.201050711566
1517.65668,27141.112282784707
1498.5842089999999,33223.658156199235
1479.978265,39411.47885927097
1461.822555,45547.39335329065
1444.101535,51542.846576853815
1426.800368,57383.082374902224
1409.904887,62897.16971012442
1393.401553,68092.66786763759
1377.2774220000001,73240.69200762564
1361.520115,78215.45790816727
1346.117782,82868.94099568269
1331.059081,87604.93616975848
1316.3331449999998,92404.88164464387
1301.92956,97070.1034182468
1287.838342,101782.01362507042
1274.049912,106492.01198546769
1260.5550779999999,111223.40521993769
1247.345017,115934.44856369412
1234.4112519999999,120707.94130320981
1221.74564,125585.86234076775
1209.340352,130402.47979344109
1197.187859,135033.2846184443
1185.28092,139923.19616730986
1173.612564,144601.13605241835
1162.1760800000002,149183.90185625074
1150.9650060000001,153814.61766478172
1139.973115,158320.20041369228
1129.194406,162482.29043064814
1118.623093,166655.83690646538
1108.253594,170671.5466365079
1098.0805269999998,174654.0661097919
1088.098695,178157.60104705964
1078.303081,182147.945347778
1068.688841,185785.54393510646
1059.251295,189923.433126975
1049.9859199999999,194172.38251204972
1040.8883449999998,199188.45048899687
1031.9543429999999,204396.9138900099
1023.1798259999999,210588.2821223484
1014.5608390000001,217783.0514460459
1006.0935529999999,225953.4021722386
997.774265,234791.27548604232
989.5993858999999,244691.9233734058
981.5654412999999,255492.7336592543
973.6690651,266725.69458462374
965.9069952,278236.1193665652
958.2760697000001,289734.2624958639
950.7732231000001,301294.8370327272
943.3954827,312445.81805275875
936.1399648,323214.48677419906
929.0038716,333067.7329720752
921.9844879000001,342753.0989482891
915.0791782,352045.9002758114
908.2853836000002,360841.6796964861
901.6006193,369204.13056873705
895.0224714,378349.9737111388
888.548595,387580.356417903
882.1767113,397461.6385710283
875.9046055,408455.8715395085
869.7301242999998,421294.05700744985
863.6511742999999,437188.2758913
857.6657193,454657.45931286924
851.7717787,475786.8733531343
845.9674256000001,501395.89614585706
840.2507849,531770.9007573834
834.6200316000001,567348.6078883567
829.0733892000001,610802.7102679061
823.6091279,659566.0231120783
818.2255633999999,716314.3842935265
812.9210552000001,778439.53936702
807.694005,849173.4104802059
802.5428559,919566.7720284236
797.4660904,997336.8050946924
792.4622299,1079416.1099222398
787.5298327,1163281.9517017216
782.6674933999999,1258676.2907125757
777.8738417999999,1363569.7405519558
773.1475413,1486464.994739337
768.4872882999999,1634552.1209761028
763.8918112000001,1815986.9164381425
759.3598692,2037980.9507684857
754.8902515999999,2309719.590268066
750.4817767999999,2626788.6424216577
746.1332914,2985904.9143471518
741.8436694000001,3377006.722857388
737.6118116,3786205.2155845477
733.4366444,4193812.040722814
729.3171195,4587368.176852022
725.2522127999999,4947655.23234969
721.2409241,5259903.507471262
717.282276,5510885.834173365
713.3753136,5702771.012977154
709.5191037000001,5843459.24565538
705.7127343,5940420.072072881
701.9553139,5997129.284104442
698.2459709,6028037.452130526
694.5838534,6040201.552412751
690.9681281000001,6043587.027788899
687.3979803,6041010.0320561025
683.8726131,6040801.114866018
680.3912472999999,6040095.636364138
676.9531202000001,6040503.0559657775
673.557486,6039105.926706513
670.2036149,6043052.794029735
666.8907926,6040858.3080940675
663.6183202999999,6041522.404518545
660.3855139,6039531.695778472
657.1917038,6039636.661667017
654.0362346,6041359.872421885
650.9184646000001,6042665.17527059
647.8377654,6042149.218294976
644.7935217999999,6040882.92338965
641.7851312999999,6039868.980103577
638.8120038,6041229.962708662
635.8735614,6041255.101921594
632.9692378999999,6040907.8812692175
630.0984786,6041130.659478251
627.2607402000001,6040490.137384952
624.4554901,6041015.174008864
621.6822068,6041283.267429161
618.940379,6041900.782163564
616.2295054,6041489.7301317835
613.549095,6041379.568113177
610.8986664,6041292.154225852
608.2777476,6041289.3487100415
605.6858758999999,6041708.487436173
603.1225977000001,6041482.773768713
600.5874682,6041425.903932097
598.0800512,6041676.251520515
595.5999188999999,6041454.759293067
593.1466518,6041133.359110609
590.7198384999999,6041748.0340262465
588.3190752,6041144.458325346
585.943966,6041448.215460218
583.5941226,6041409.597524574
581.2691637,6041171.091197145
578.9687155,6041129.922207387
576.692411,6041279.739441789
574.4398902,6041596.786002999
572.2107997,6041318.674136347
570.0047927,6041583.314005189
567.8215287,6041576.328484773
565.6606737000001,6041544.013858836
563.5218996,6042087.683859035
561.4048845,6041375.907489263
559.3093121,6041271.719159675
557.2348721,6041549.377715585
555.1812597,6041832.704364522
553.1481756000001,6041358.618854248
551.1353259,6041178.66165575
549.1424218999999,6041313.789897038
547.1691801,6041455.36400913
545.2153222000001,6041384.054117752
543.2805745000001,6041332.276244047
541.3646685,6041331.778305448
539.46734,6041327.497433998
537.5883299,6041383.644759804
535.7273833,6041397.086056201
533.8842498,6040950.998306521
532.0586836,6041763.418704751
530.2504428000001,6041591.100362456
528.45929,6041879.477854407
526.6849915,6041120.53507476
524.927318,6041740.227588036
523.186044,6041320.326968363
521.4609475999999,6040890.085103839
519.7518110000001,6041293.309390851
518.0584200000001,6041493.530209137
516.3805639,6041728.287879934
514.7180356,6041650.995827532
513.0706316000001,6041312.718319612
511.43815149999995,6041298.094391776
509.82039860000003,6041403.145046373
508.2171791999999,6041122.27871726
506.628303,6041375.191443666
505.05358269999994,6041137.291795206
503.4928341,6041076.671719685
501.9458762,6041400.782431565
500.41253059999997,6041196.531072691
498.8926222,6040936.689343961
497.3859785,6041228.756332064
495.89242989999997,6042009.493417338
494.4118094,6041284.215702863
492.943953,6041356.268647217
491.488699,6041693.612122327
490.04588839999997,6041083.678855083
488.6153648,6041669.534023303
487.19697429999997,6040943.563035851
485.7905654,6041690.7250149185
484.39598889999996,6041163.30831243
483.01309800000007,6041354.539141161
481.64174840000004,6041848.028421657
480.28179789999996,6041417.077394991
478.93310639999993,6041209.59448616
477.59553619999997,6041129.204244813
476.2689517,6041522.15344305
474.9532192,6041449.189925493
473.6482074,6041240.317271146
472.35378679999997,6041524.095390728
471.06982989999995,6041401.086700131
469.79621110000005,6041637.288214364
468.53280700000005,6041581.372764522
467.2794956999999,6041108.834835785
466.0361575,6041547.056099692
464.80267410000005,6041073.866490628
463.5789295,6040943.35007305
462.364809,6041161.651237157
461.1601998,6041591.735233743
459.9649909,6041323.827374799
458.7790727,6041193.772825822
457.6023374,6041155.6739249965
456.4346788,6041734.871125934
455.2759921,6037920.188588745
454.12617439999997,6026037.726797467
452.9851239,6002469.529436057
451.85274060000006,5963677.049584455
450.7289258,5906840.9183465615
449.6135822,5830084.217290472
448.5066141,5733131.286757762
447.407927,5615964.525649989
446.317428,5485331.467818876
445.23502520000005,5352462.185141441
444.1606283,5226948.74721739
443.0941482,5116109.517311227
442.03549699999996,5029699.945513906
440.9845882,4970157.330080058
439.9413364,4941553.06326576
438.9056575,4943338.696971493
437.87746860000004,4970200.654177569
436.85668780000003,5012471.701802047
435.8432345,5061329.244409492
434.83702930000004,5104912.646393577
433.83799369999997,5135155.04939804
432.84605039999997,5143311.34000627
431.8611232,5123617.157596032
430.8831369,5073486.893164151
429.9120175,4991491.372143885
428.94769169999995,4881238.15661507
427.9900874,4746911.2940998655
427.03913370000004,4594822.820477238
426.0947602,4434086.011355186
425.1568978,4273189.715514307
424.22547829999996,4120365.072057431
423.3004343,3983358.961505446
422.3816994,3867898.289375191
421.4692081,3777230.892948156
420.56289569999996,3712937.835887992
419.66269850000003,3673514.987565024
418.7685535,3656354.3203877676
417.8803987,3655046.589971031
416.9981727,3664028.557599903
416.12181519999996,3675535.6773108835
415.25126639999996,3684105.561884979
414.38646760000006,3683395.422806727
413.5273605,3670043.202622377
412.673888,3641773.359723969
411.8259934,3597392.266400791
410.9836208,3538604.062620697
410.14671519999996,3467767.9804997942
409.3152221,3386901.216261354
408.48908789999996,3299572.213805865
407.66825960000006,3208626.400787295
406.8526847,3116423.0484162765
406.0423117,3024383.641647796
405.2370896,2933884.2448042333
404.43696800000004,2846525.630315442
403.64189730000004,2761919.5826703883
402.8518283,2681182.303443006
402.0667126,2604497.263881912
401.28650239999996,2532658.6224503373
400.5111505,2465577.5592339174
399.7406101,2403517.316333799
398.9748353,2346424.246267564
398.2137806,2294672.1198893497
397.457401,2248053.927577873
396.7056521,2205982.31744575
395.9584903,2167770.933356674
395.2158722,2132452.5368185244
394.4777551,2099243.1473901505
393.7440968,2068866.313450004
393.0148555,2040065.5551906112
392.2899901,2012345.201322593
391.56946,1985431.900112908
390.853225,1959091.9833546975
390.1412452,1933341.9002215855
389.43348169999996,1907964.6082987103
388.7298955,1883689.1144108484
388.03044839999995,1859217.955745009
387.3351027,1834791.0194954504
386.6438209,1811051.513763852
385.95656610000003,1787150.5097443652
385.2733019,1763194.240681791
384.5939922,1738496.8407009812
383.9186014,1712863.953943017
383.2470943,1686061.4086567082
382.5794362,1657826.7801187248
381.9155926,1628247.868929245
381.2555296,1597607.1593043285
380.59921360000004,1566341.4854987632
379.9466115,1534838.5786812247
379.29769039999996,1503500.785608016
378.652418,1473579.4739143453
378.0107622,1444956.5842314428
377.37269130000004,1417796.8522312152
376.73817410000004,1392308.3391033013
376.1071796,1368835.0517297634
375.47967719999997,1346967.9875533795
374.8556368,1326825.5868637892
374.2350283,1308643.20181326
373.6178223,1292186.561841335
373.0039896,1277894.4537770387
372.3935012,1266231.3786231494
371.78632860000005,1257398.95165974
371.1824436,1251963.9235710686
370.5818182,1250566.8282993669
369.98442489999996,1253230.7882871516
369.39023629999997,1260182.6777455064
368.7992255,1271427.5682004609
368.2113658,1286703.1076417484
367.6266307,1305653.8854422106
367.0449943,1327664.7563975272
366.4664305,1352072.9906683594
365.89091410000003,1377925.6568734546
365.3184196,1404694.9886907232
364.7489221,1431170.5324383047
364.18239689999996,1457157.7162719057
363.61881960000005,1481697.081716707
363.058166,1503754.4917504343
362.50041219999997,1522694.7168530056
361.94553460000003,1537381.6950007924
361.3935098,1546976.214682452
360.8443147,1550940.1001830532
360.29792630000003,1548169.4744817398
359.754322,1538580.3384760094
359.2134795,1521479.7069055971
358.6753765,1497445.7833544184
358.1399912,1466900.3319562152
357.6073018,1431331.4749848458
357.077287,1391536.5717479016
356.5499253,1350135.8642588612
356.025196,1307883.6555583735
355.50307799999996,1266854.7544555396
354.983551,1228043.28011267
354.4665945,1192594.36687488
353.95218839999995,1160377.1903690128
353.4403127,1131024.4915416776
352.9309478,1104108.3642186574
352.42407410000004,1077916.662370347
351.9196722,1051422.8880631416
351.4177232,1023437.5023819987
350.91820789999997,992606.9573680095
350.4211078,958597.1799878118
349.9264043,920868.4726877515
349.434079,879735.7276098778
348.9441137,836230.441899752
348.45649060000005,791563.1313658659
347.97119169999996,747126.6155871152
347.48819960000003,704740.0725270882
347.0074967,665890.8953028814
346.5290657,632210.1915371869
346.0528897,604658.7327010715
345.5789517,583945.7359578109
345.1072349,570302.8702987689
344.6377228,562922.9203186658
344.17039889999995,561287.3359601878
343.70524710000007,563947.0514980445
343.24225110000003,569406.4657084356
342.7813952,576165.7423305953
342.32266339999995,582564.4456825004
341.8660403,587388.4512594321
341.4115102,589723.1286268
340.959058,588741.8244347865
340.5086685,584358.8424646175
340.06032660000005,576462.9513679885
339.6140175,565197.2995572485
339.1697264,550916.6281166071
338.7274388,534240.4342014893
338.28714019999995,515421.0959499154
337.8488164,494928.2594161858
337.41245310000005,473138.03294545633
336.9780363,450081.0807151596
336.5455522,426334.1213417641
336.114987,401863.3332291356
335.686327,376893.406037413
335.2595588,351738.8984108148
334.834669,326691.43895270943
334.4116443,301884.5977163673
333.9904716,277751.39686756674
333.57113799999996,254455.5693922664
333.1536305,232175.4270329977
332.73793639999997,211229.42484862046
332.32404310000004,191702.43214632492
331.91193799999996,173593.7435241247
331.5016088,156906.39170302876
331.0930432,141680.60661215842
330.6862289,127848.82824596547
330.281154,115259.06346396453
329.8778065,103875.93315034304
329.47617460000004,93623.17275738806
329.07624649999997,84404.56191690471
328.6780106,76152.74322654153
328.2814555,68905.0552823976
327.88656960000003,62478.359410329715
327.4933418,56854.90389951602
327.1017607,52072.73375910352
326.7118154,47963.54052335471
326.32349480000005,44466.47157442031
325.93678789999996,41566.97234062217
325.5516841,39141.46978561957
325.16817260000005,37088.09233742875
324.7862428,35386.52649744572
324.40588419999995,33898.68298615014
324.0270864,32618.763054853836
323.649839,31484.526404293218
323.2741319,30425.36959429439
322.8999548,29433.86859034808
322.5272977,28456.247411090084
322.1561508,27526.205807940092
321.786504,26584.927936812997
321.4183476,25644.56915413605
321.0516719,24740.427724526162
320.6864673,23797.306826966935
320.3227243,22854.808258006095
319.96043330000003,21940.05882591565
319.5995851,21025.205434642983
319.2401704,20102.72110260565
318.8821799,19238.25001822416
318.5256045,18359.787652007944
318.1704352,17491.953793566416
317.8166631,16648.056467100683
317.4642791,15848.777076882792
317.1132746,15051.215553880178
316.76364069999994,14248.171553509284
316.4153688,13510.95326165112
316.06845039999996,12788.184691205086
315.72287689999996,12124.57432467758
315.37863980000003,11502.729732425425
315.0357308,10925.773970026037
314.6941415,10373.656019994145
314.3538639,9884.266021563912
314.0148896,9440.702910316202
313.6772106,9014.915535225697
313.3408189,8612.270959332098
313.00570639999995,8222.469309067663
312.67186549999997,7838.400432308361
312.33928810000003,7456.947670151055
312.0079665,7089.957612333529
311.6778931,6716.72989037048
311.34906010000003,6353.073971161534
311.0214601,5990.726335807163
310.6950856,5650.289661383728
310.369929,5330.625924690321
310.04598300000004,5031.706666957932
309.7232403,4760.390630251802
309.4016935,4519.970245086398
309.0813356,4306.3746208940975
308.7621594,4114.192486708869
308.4441577,3943.4226684067016
308.1273236,3795.9928285477868
307.8116501,3657.883664187743
307.49713019999996,3113.7735043510793
307.18375710000004,2587.8876378557784
306.871524,2093.6557295968564
306.5604242,1625.0885655682007
306.2504509,1183.1291641031366
