wave,flux
1817.164934,-19.152811567655128
1790.1022050000001,25.572075481597675
1763.812741,-17.574469500642742
1738.2646949999998,47.987797626883925
1713.427949,91.53569096705387
1689.273995,1847.1967496155885
1665.7758310000002,6041.935690166651
1642.907862,12804.765876140513
1620.64581,21955.751566032242
1598.9666300000001,33740.922087166146
1577.8484310000001,47970.10405553778
1557.270407,64690.4098561839
1537.212767,83998.61670728981
1517.65668,102769.16177442293
1498.5842089999999,119519.69227722342
1479.978265,134311.88685838325
1461.822555,147274.17727337516
1444.101535,158167.2749341988
1426.800368,167341.69422579472
1409.904887,174453.23220968258
1393.401553,179698.82604428657
1377.2774220000001,184401.22751981785
1361.520115,189301.3998525169
1346.117782,194235.85049811864
1331.059081,199460.27985642015
1316.3331449999998,204954.5384316477
1301.92956,210333.5296756844
1287.838342,215926.82656119508
1274.049912,221776.05103305035
1260.5550779999999,227661.91932899944
1247.345017,233604.22601671107
1234.4112519999999,239343.96761840692
1221.74564,245215.84802592878
1209.340352,250639.4483185309
1197.187859,256061.50291526323
1185.28092,261365.19203096488
1173.612564,266485.4652750513
1162.1760800000002,271016.74257261195
1150.9650060000001,275398.50849036704
1139.973115,279832.340852465
1129.194406,283995.0514988009
1118.623093,288112.3942429845
1108.253594,291943.2782490044
1098.0805269999998,295810.3198520421
1088.098695,299905.4295330257
1078.303081,304297.1691364935
1068.688841,309373.322009605
1059.251295,315459.9897017904
1049.9859199999999,323483.60380988603
1040.8883449999998,333475.4763640309
1031.9543429999999,346549.3576666568
1023.1798259999999,362530.4078128087
1014.5608390000001,381343.3065630332
1006.0935529999999,402825.03163581213
997.774265,427273.6432675204
989.5993858999999,453246.97639142006
981.5654412999999,480094.06643689476
973.6690651,506658.3557532302
965.9069952,532715.0919852552
958.2760697000001,555977.1717418699
950.7732231000001,576972.7649153355
943.3954827,594799.2002289003
936.1399648,610129.8559839361
929.0038716,621720.7182277468
921.9844879000001,631297.7210165346
915.0791782,637402.565926402
908.2853836000002,643746.9794339017
901.6006193,649364.9084377111
895.0224714,656705.0118937012
888.548595,667680.5304605213
882.1767113,683043.5291913954
875.9046055,704551.1496034203
869.7301242999998,735086.0819104844
863.6511742999999,772641.6847204895
857.6657193,821396.65595089
851.7717787,883060.5963319574
845.9674256000001,958208.4999391205
840.2507849,1049833.2165885104
834.6200316000001,1160216.7956934136
829.0733892000001,1287597.8489162251
823.6091279,1431544.1674366216
818.2255633999999,1594744.1641715406
812.9210552000001,1766377.9417184284
807.694005,1948777.657153915
802.5428559,2125466.2534325114
797.4660904,2307318.1774708843
792.4622299,2490656.8790810728
787.5298327,2679765.973613249
782.6674933999999,2899211.947892338
777.8738417999999,3140509.503760681
773.1475413,3403490.682495755
768.4872882999999,3698570.1090004975
763.8918112000001,4017686.1245083762
759.3598692,4358017.417089669
754.8902515999999,4702217.552615023
750.4817767999999,5033410.974782669
746.1332914,5318097.640090544
741.8436694000001,5547957.838618085
737.6118116,5735442.02563297
733.4366444,5872027.008896372
729.3171195,5961964.878641892
725.2522127999999,6016166.249320604
721.2409241,6038680.596530316
717.282276,6039166.7114788275
713.3753136,6040071.957606489
709.5191037000001,6041382.153653667
705.7127343,6040478.116279365
701.9553139,6039589.443645832
698.2459709,6042813.879352363
694.5838534,6042226.106643597
690.9681281000001,6041073.282191309
687.3979803,6040686.077711494
683.8726131,6037598.026431386
680.3912472999999,6043902.096775193
676.9531202000001,6041736.996380295
673.557486,6040201.181205883
670.2036149,6042245.028679327
666.8907926,6041193.8770078765
663.6183202999999,6040338.113025053
660.3855139,6039844.499002219
657.1917038,6040761.434122135
654.0362346,6043698.849868912
650.9184646000001,6041656.715799143
647.8377654,6042784.7596143335
644.7935217999999,6044175.574588283
641.7851312999999,6041867.91243719
638.8120038,6043341.645119523
635.8735614,6040858.055895846
632.9692378999999,6040804.463171364
630.0984786,6040814.039705001
627.2607402000001,6041547.912350628
624.4554901,6040986.1842854265
621.6822068,6042733.195067174
618.940379,6041083.081241072
616.2295054,6041287.241922753
613.549095,6041476.1646988075
610.8986664,6041763.418489735
608.2777476,6041387.919358102
605.6858758999999,6041318.386731518
603.1225977000001,6041267.145634508
600.5874682,6041505.06999985
598.0800512,6041194.888418557
595.5999188999999,6041246.299005058
593.1466518,6041679.660008944
590.7198384999999,6041571.845282887
588.3190752,6041803.105345894
585.943966,6040988.831631939
583.5941226,6041629.453909718
581.2691637,6041463.717556269
578.9687155,6041119.0494495975
576.692411,6041342.7839079015
574.4398902,6041567.010022587
572.2107997,6041328.17300571
570.0047927,6041593.486795579
567.8215287,6041151.623291172
565.6606737000001,6041575.7482883865
563.5218996,6041006.368977265
561.4048845,6041569.882145555
559.3093121,6041704.626968447
557.2348721,6041288.425341642
555.1812597,6041400.358507609
553.1481756000001,6040946.391704517
551.1353259,6041541.219115586
549.1424218999999,6041184.197488368
547.1691801,6041468.591053009
545.2153222000001,6041253.578995951
543.2805745000001,6041413.8399077
541.3646685,6041310.972510335
539.46734,6041424.812960587
537.5883299,6041271.684412266
535.7273833,6041064.210377044
533.8842498,6041553.0356430635
532.0586836,6041543.307699475
530.2504428000001,6041132.289257327
528.45929,6041656.487196754
526.6849915,6041426.008099143
524.927318,6041891.016193262
523.186044,6041648.343596239
521.4609475999999,6041405.578218328
519.7518110000001,6041285.859391311
518.0584200000001,6041159.008399418
516.3805639,6041144.447654231
514.7180356,6041216.071961323
513.0706316000001,6041586.872271642
511.43815149999995,6041521.133527353
509.82039860000003,6040853.959133275
508.2171791999999,6041300.570689516
506.628303,6040997.803462704
505.05358269999994,6041480.664739053
503.4928341,6041645.717833988
501.9458762,6041027.600264901
500.41253059999997,6041332.141754055
498.8926222,6040975.826337286
497.3859785,6041314.949043573
495.89242989999997,6041383.520426184
494.4118094,6041719.814312528
492.943953,6041389.49035876
491.488699,6041414.0008025225
490.04588839999997,6041507.34576901
488.6153648,6041345.2313059475
487.19697429999997,6041440.510462261
485.7905654,6041613.993742352
484.39598889999996,6041350.084258141
483.01309800000007,6041389.4851571815
481.64174840000004,6041603.3795155175
480.28179789999996,6041467.160537981
478.93310639999993,6041705.892099583
477.59553619999997,6041143.529082593
476.2689517,6041321.727935243
474.9532192,6041540.368297214
473.6482074,6041746.909627603
472.35378679999997,6040976.594218423
471.06982989999995,6040753.286186203
469.79621110000005,6041510.448172466
468.53280700000005,6041738.8040891085
467.2794956999999,6041575.410473648
466.0361575,6041315.482603137
464.80267410000005,6041625.016189374
463.5789295,6041471.856483386
462.364809,6041514.583088849
461.1601998,6041234.430154378
459.9649909,6041726.451865287
458.7790727,6041416.255478702
457.6023374,6032875.6855661115
456.4346788,6007291.730678462
455.2759921,5956667.356858315
454.12617439999997,5874156.077826978
452.9851239,5753619.48734089
451.85274060000006,5591163.644457079
450.7289258,5381172.770427023
449.6135822,5121053.5690545915
448.5066141,4823003.9829914
447.407927,4502466.474032253
446.317428,4170999.734881577
445.23502520000005,3840847.749491463
444.1606283,3520512.979932981
443.0941482,3218419.7291494063
442.03549699999996,2940460.83391158
440.9845882,2692777.128607191
439.9413364,2471503.234932092
438.9056575,2272569.461578624
437.87746860000004,2091694.6252307103
436.85668780000003,1926075.682810219
435.8432345,1773250.5632354028
434.83702930000004,1631727.6665592804
433.83799369999997,1500110.0334693603
432.84605039999997,1378253.7558435458
431.8611232,1266321.8333563423
430.8831369,1164101.4543643545
429.9120175,1071685.4865872147
428.94769169999995,989414.4575567156
427.9900874,916402.3066905872
427.03913370000004,852693.0479302198
426.0947602,797737.9889913014
425.1568978,750304.4018779794
424.22547829999996,709586.0609637109
423.3004343,674798.6932389576
422.3816994,644777.4931174712
421.4692081,618686.2597049336
420.56289569999996,595869.1750681485
419.66269850000003,575581.1915976595
418.7685535,557123.7727523793
417.8803987,540042.1040553878
416.9981727,523834.4956038877
416.12181519999996,508270.03333343205
415.25126639999996,493180.50878288463
414.38646760000006,478322.606708116
413.5273605,463589.8655527464
412.673888,449157.3997156494
411.8259934,434899.8190805379
410.9836208,420954.4013227375
410.14671519999996,407212.26754317974
409.3152221,393650.9471477561
408.48908789999996,380386.9590678424
407.66825960000006,367410.01553475787
406.8526847,354772.1633476464
406.0423117,342463.0679721804
405.2370896,330431.043933608
404.43696800000004,318790.6070151636
403.64189730000004,307415.0725465169
402.8518283,296349.4879231039
402.0667126,285616.03103948856
401.28650239999996,275119.93198576
400.5111505,264788.7252866103
399.7406101,254101.4057972127
398.9748353,242959.2489464785
398.2137806,231624.8996398924
397.457401,219857.15629825657
396.7056521,207757.3118600189
395.9584903,195283.18083102626
395.2158722,182561.8477107367
394.4777551,169615.61203210376
393.7440968,157506.15331282635
393.0148555,146253.69027066848
392.2899901,135614.96142068668
391.56946,125901.15313833274
390.853225,117090.88065075525
390.1412452,109113.64183843699
389.43348169999996,101978.69546942123
388.7298955,95562.52115352235
388.03044839999995,89432.05377804523
387.3351027,83537.18119265336
386.6438209,78052.21191964009
385.95656610000003,72820.68658818827
385.2733019,67876.98687282878
384.5939922,63249.5293661485
383.9186014,58853.59067342035
383.2470943,54751.1176559775
382.5794362,50873.468481184456
381.9155926,47288.8447156228
381.2555296,43858.49896247988
380.59921360000004,40619.87968728906
379.9466115,37549.0494263267
379.29769039999996,34645.76247171793
378.652418,31890.2720000494
378.0107622,29289.097845269847
377.37269130000004,26848.259792822115
376.73817410000004,24524.58364962645
376.1071796,22332.0581878534
375.47967719999997,20230.41511171003
374.8556368,18187.28934775869
374.2350283,16223.540102380532
373.6178223,14360.252355996006
373.0039896,12584.910775246446
372.3935012,10952.687245308798
371.78632860000005,9456.566401854392
371.1824436,8100.1671628621425
370.5818182,6922.851628758224
369.98442489999996,5916.368120494715
369.39023629999997,5073.138929904723
368.7992255,4387.289424264068
368.2113658,3811.999797124716
367.6266307,3316.052121144645
367.0449943,2893.188253721732
366.4664305,2517.6208985516987
365.89091410000003,2186.9211139142217
365.3184196,1879.0068303845721
364.7489221,1578.7613520168204
364.18239689999996,1297.5271337958286
363.61881960000005,1045.6490938566571
363.058166,817.1105549392671
362.50041219999997,634.011892027577
361.94553460000003,471.7035339424807
361.3935098,339.42529158905944
360.8443147,232.854096137842
360.29792630000003,152.16511579306268
359.754322,95.50881601493096
359.2134795,59.92869955015091
358.6753765,34.93826912266175
358.1399912,21.49101431749929
357.6073018,3.062017573732363
357.077287,1.2527719786893314
356.5499253,0.7640499424904114
356.025196,-2.2858194203545668
355.50307799999996,1.8941110650101245
354.983551,-4.0618423753323185
354.4665945,-0.09957816606910876
353.95218839999995,-4.964510830101128
353.4403127,1.7936384432425712
352.9309478,-4.1590793162697945
352.42407410000004,0.6700836703834292
351.9196722,-5.784460798339914
351.4177232,2.544751669803732
350.91820789999997,-0.5199875886803106
350.4211078,0.8334238984740671
349.9264043,-1.6206801532777422
349.434079,-0.2855734369817831
348.9441137,-0.9784658675966498
348.45649060000005,-1.8218562073935631
347.97119169999996,-2.337855010248854
347.48819960000003,-0.3978680455750059
347.0074967,4.506389705305058
346.5290657,1.8259528408289811
346.0528897,2.5092953117467673
345.5789517,-1.0831512465237636
345.1072349,3.624916349014624
344.6377228,-3.182026970521206
344.17039889999995,-0.9790994661514532
343.70524710000007,-2.7995101580562234
343.24225110000003,-3.467168974428912
342.7813952,-0.36501137451975935
342.32266339999995,1.6578539659221228
341.8660403,2.8131696912580453
341.4115102,3.036870121342192
340.959058,-1.025040135899616
340.5086685,1.3858425954397209
340.06032660000005,2.5309303798883933
339.6140175,-0.4523304705191104
339.1697264,4.38153551407679
338.7274388,-0.23936296439633434
338.28714019999995,-0.041512042583886175
337.8488164,-1.708795753204725
337.41245310000005,-4.509460578482403
336.9780363,0.07140927932092313
336.5455522,4.601395679963576
336.114987,3.3432677937150865
335.686327,-0.6398245099976615
335.2595588,-3.0522326976401635
334.834669,-0.8248751929057678
334.4116443,-0.4831012003682216
333.9904716,-4.313133771402634
333.57113799999996,-1.3286340029915165
333.1536305,-3.6221425906277953
332.73793639999997,-4.608201142782483
332.32404310000004,0.21147659758485185
331.91193799999996,-2.7751644638271817
331.5016088,4.920045359171539
331.0930432,4.611214979345429
330.6862289,-1.8406590548073416
330.281154,-1.9806953449281943
329.8778065,0.5609225409876023
329.47617460000004,2.821744410233227
329.07624649999997,-0.9806484631990964
328.6780106,-0.02099669654752864
328.2814555,0.1548391191012287
327.88656960000003,1.6655051286608389
327.4933418,2.214494341007626
327.1017607,-2.6410062460762225
326.7118154,-0.18282091142840115
326.32349480000005,1.9677965074437709
325.93678789999996,-4.5130355995252565
325.5516841,3.0520061075853637
325.16817260000005,-0.5312906947894575
324.7862428,-2.346010735147107
324.40588419999995,-2.3814281260130628
324.0270864,-0.7837229521756208
323.649839,-2.106465239390941
323.2741319,2.4445569798047897
322.8999548,-4.133965285984431
322.5272977,-0.2397909815367553
322.1561508,1.0320507733552942
321.786504,1.8784624301406707
321.4183476,-0.647622865924801
321.0516719,-0.4573035109724184
320.6864673,-0.894231781741831
320.3227243,0.3112568193507728
319.96043330000003,2.7073189869374854
319.5995851,1.0429724751447729
319.2401704,-3.774510927434149
318.8821799,-7.375672147681523
318.5256045,2.1123875301301607
318.1704352,0.5552087911001681
317.8166631,1.5953825474308907
317.4642791,0.5844433188457435
317.1132746,-4.585537152913932
316.76364069999994,-1.3667622122148373
316.4153688,0.2750007619655641
316.06845039999996,-0.02937524700617689
315.72287689999996,-0.32898276934556564
315.37863980000003,2.176098597221311
315.0357308,-0.8164400091474431
314.6941415,0.09558358984696796
314.3538639,-1.4939837290640363
314.0148896,0.686437980530525
313.6772106,3.4054092679032033
313.3408189,-1.7847070409885673
313.00570639999995,2.072295153586452
312.67186549999997,-1.1288982114863275
312.33928810000003,-1.6466715393882119
312.0079665,-1.5124470644650765
311.6778931,3.2706190063311333
311.34906010000003,-0.019854126832436782
311.0214601,0.988443097561114
310.6950856,1.2806488675954122
310.369929,3.366254322865733
310.04598300000004,0.0030362364885602976
309.7232403,-3.1788589557516294
309.4016935,1.8732222387558088
309.0813356,2.542995442012753
308.7621594,0.3925584844100541
308.4441577,-5.995220292014984
308.1273236,2.052649618051615
307.8116501,-1.191258259509003
307.49713019999996,-4.4471807280263445
307.18375710000004,1.4942002680740123
306.871524,-4.183275724556469
306.5604242,-1.7311661551779145
306.2504509,-4.431084188566775
