wave,flux
579.7349067000001,7709.425275979976
580.4012016,16270.131276600127
581.0690204,25509.122360736914
581.7383737,35654.04705332287
582.4092722999999,46956.51800401168
583.0817268999999,59215.93875342528
583.7557482999999,72595.39885891705
584.4313472,86978.6343177573
585.1085343999999,91343.51062337909
585.7873207,95950.49379844619
586.4677171,100644.99909672108
587.1497343999999,105368.21393887028
587.8333835,110221.81981291783
588.5186752999999,115011.11699388485
589.2056208,119562.56492919207
589.8942308999999,124207.89288113367
590.5845168,128644.53638409774
591.2764894,132970.37380611352
591.9701597999999,137188.25651248722
592.665539,141344.9756114983
593.3626383,145386.56152186135
594.0614688,149528.44592993413
594.7620416,153916.4205336275
595.4643679,158326.0215368159
596.1684591,163112.62343913238
596.8743264,168269.5447823825
597.5819809999999,173808.5546440313
598.2914344,179686.2523583556
599.0026978,185737.2358372461
599.7157827000001,192118.5152301045
600.4307005,198486.39119024167
601.1474627,204813.0335652004
601.8660807,210685.27640560915
602.5865660000001,216382.3807889446
603.3089302999999,221549.85330975594
604.0331851,226727.12840579773
604.7593419,231923.64727862464
605.4874126,237093.3581642505
606.2174086,242594.27399942762
606.9493418,248685.1316181956
607.6832239,255430.2425882372
608.4190667,263271.0908209846
609.1568819,272102.32562273025
609.8966815,281361.263634453
610.6384772000001,291334.2579699664
611.3822811000001,301965.6440717363
612.128105,312608.7796970975
612.8759610000001,323425.96058805514
613.625861,334194.62883744715
614.3778171,345201.62574335444
615.1318413,356410.82752705296
615.8879458,368226.6254376085
616.6461426,381452.04388224776
617.4064441,396267.50743542716
618.1688624,412749.5798827789
618.9334097,431006.24063425756
619.7000982000001,451162.522331529
620.4689404000001,473613.15961482783
621.2399486,497391.795054305
622.0131351,522913.84723813506
622.7885123,549065.9425932708
623.5660927,576380.8253965057
624.3458887999999,605278.6001974662
625.127913,635002.9708756517
625.9121779,669375.4120210307
626.698696,706871.1741872043
627.48748,753172.2577006149
628.2785426,808183.3238170685
629.0718962999999,879199.7618009639
629.8675538,970950.9905051944
630.6655279,1091441.5637764062
631.4658314,1247784.4280921558
632.268477,1450915.4709527632
633.0734776,1711529.6197748145
633.880846,2033827.1955610912
634.6905951,2411957.574748481
635.5027378999999,2834283.8855210426
636.3172871,3290187.9406714123
637.1342559,3762187.616245863
637.9536572000001,4230314.422840413
638.775504,4672004.315032579
639.5998095,5058405.9769150065
640.4265866000001,5372433.907138491
641.2558486,5617224.19760087
642.0876085,5797627.856074434
642.9218795,5921061.463696
643.7586747,5994804.844072556
644.5980075,6031215.9890735485
645.4398911000001,6041324.560554476
646.2843386,6041751.863863017
647.1313635,6041432.707553772
647.980979,6041639.2935286
648.8331985,6041530.901683455
649.6880352999999,6041238.076626463
650.5455028,6041684.580826319
651.4056144,6041370.302348843
652.2683836,6041758.53502382
653.1338237000001,6041033.48180772
654.0019482999999,6041398.277759437
654.8727708,6041174.869245926
655.7463047,6041098.4605098935
656.6225636,6041247.998199501
657.501561,6041213.102491157
658.3833105,6041675.173506688
659.2678255,6041354.862794315
660.1551197000001,6041644.441429223
661.0452068,6041939.220913758
661.9381002,6041391.46357243
662.8338137000001,6041566.783747729
663.7323607999999,6041506.331844827
664.6337553,6041395.154352518
665.5380107000001,6041174.928814688
666.4451407,6041789.567108886
667.355159,6041768.990847449
668.2680793,6041025.600701578
669.1839152000001,6041878.621230503
670.1026805,6041536.203329182
671.0243889,6041817.049782247
671.949054,6041288.980459927
672.8766895,6041271.116313018
673.8073092,6041228.570076198
674.7409267,6041021.87285016
675.6775557999999,6041509.762488304
676.6172101,6041406.773123708
677.5599033,6041372.668337625
678.5056492000001,6041317.116322317
679.4544612999999,6041289.512202607
680.4063535,6041134.786884902
681.3613392999999,6041533.216924714
682.3194324,6041266.774412323
683.2806465,6041136.6792547135
684.2449952000001,6041656.735559247
685.2124921,6041453.935218197
686.1831509,6041477.807051958
687.1569850999999,6041447.407197123
688.1340083,6040951.0301357685
689.1142341,6041551.977994118
690.097676,6041295.175980351
691.0843474999999,6041496.867909148
692.0742622,6041330.458684293
693.0674334,6041360.913656178
694.0638748,6041843.168072684
695.0635996,6041188.541090461
696.0666212,6041507.856637272
697.0729531000001,6041130.160638803
698.0826086,6041226.637563645
699.0956008999999,6041517.02129734
700.1119432999999,6041433.962947777
701.1316491,6041447.719601933
702.1547314,6041815.003225118
703.1812034,6040981.717873668
704.2110782000001,6040967.6351438975
705.2443688999999,6041738.733177078
706.2810885,6041548.596795866
707.3212499,6041271.804002987
708.3648661000001,6041728.899340636
709.41195,6041584.068917628
710.4625143999999,6041240.915375478
711.5165721,6041437.214353087
712.5741357,6041658.888258887
713.6352181,6041853.817453749
714.6998317000001,6041671.885354993
715.7679891,6041130.504671548
716.8397027999999,6041436.080231153
717.9149852,6041318.773342314
718.9938487000001,6041110.558645267
720.0763055,6041722.756696959
721.162368,6041509.564044408
722.2520481,6041873.071762422
723.3453581,6041526.665576748
724.4423098,6041324.880358534
725.5429153,6041484.095598589
726.6471863,6041026.719533288
727.7551346,6041408.608434394
728.866772,6041784.03417271
729.9821099,6041725.843732835
731.1011599,6041513.788835146
732.2239335,6041210.168393136
733.3504419,6041645.331585477
734.4806963999999,6040885.036336835
735.6147081,6041689.546074187
736.7524882,6041305.1218696935
737.8940474,6041200.2653254075
739.0393967,6041800.426085106
740.1885467999999,6041282.587589228
741.3415084,6041523.938211418
742.498292,6041349.3987891525
743.658908,6041682.543470183
744.8233667999999,6041026.177558086
745.9916785,6041609.620689474
747.1638532000001,6041236.894622227
748.3399009,6041267.287163357
749.5198315,6040997.277771267
750.7036546,6041894.717999257
751.89138,6041019.960727064
753.0830171,6041294.731642417
754.2785752999999,6041196.609560045
755.4780638,6040896.320479778
756.6814917,6041697.931365322
757.8888678999999,6041314.892698192
759.1002014999999,6041291.76002809
760.3155009,6041289.917748722
761.5347749,6036780.657062923
762.7580318,6023964.05980649
763.98528,5997712.657800937
765.2165276000001,5955951.308974412
766.4517825,5895347.040713949
767.6910527000001,5813382.031961722
768.9343458999999,5705559.672415217
770.1816697,5569875.59638177
771.4330313999999,5410181.127787641
772.6884382999999,5231843.763107789
773.9478975,5039085.463048446
775.211416,4832980.524139859
776.4790005,4616379.994471286
777.7506578,4391418.445752092
779.0263942,4162201.13336868
780.3062162,3932472.826492075
781.5901297,3704004.682353642
782.8781409,3478031.841765556
784.1702554999999,3257889.6366349626
785.4664793,3047456.7490209923
786.7668176,2849790.8058376038
788.0712758,2667880.449633716
789.3798591,2503522.8423466543
790.6925722999999,2356380.8811159288
792.0094204,2226130.71682236
793.3304079,2110622.710441304
794.6555392000001,2007214.1856742024
795.9848187000001,1913150.7631557602
797.3182504,1825846.586434492
798.6558382999999,1742977.564362195
799.9975861,1663641.2775876955
801.3434973,1585741.904297726
802.6935752999999,1510419.1496726063
804.0478232999999,1437564.072187647
805.4062443,1367628.7720231244
806.7688411,1301695.3845820487
808.1356164,1240120.060906805
809.5065726,1183657.899297768
810.881712,1132334.1536698123
812.2610367000001,1085876.9113334347
813.6445485,1043587.3167137622
815.0322493,1004697.6743276273
816.4241404,968409.0065766559
817.8202233,933318.2401410504
819.2204991,899116.5702209264
820.6249687999999,864897.1098753907
822.0336331,830232.955694159
823.4464925999999,794968.3611602952
824.8635477000001,759564.773113662
826.2847987,724118.5188902372
827.7102456,689123.515936417
829.1398882,655092.694732433
830.5737261,622111.7128145909
832.0117589,590517.13129382
833.4539857000001,560695.1867076791
834.9004057999999,532372.5912337779
836.3510179,505560.8878744025
837.8058209,479851.12618747435
839.2648132999999,455164.5877465536
840.7279934000001,431060.8606945975
842.1953594,407389.4142823333
843.6669092,384107.6578465593
845.1426408,361062.00322486064
846.6225517000001,338163.1508206549
848.1066392999999,315524.3289994862
849.5949009999999,293031.8247583148
851.0873337999999,271018.12152723875
852.5839347000001,249467.1316309073
854.0847002999999,228473.33789758905
855.5896273,208273.924826504
857.0987119999999,188741.7572744613
858.6119507000001,170146.76381401625
860.1293393999999,152510.40892807208
861.650874,136164.089540954
863.1765502000001,120960.25721488072
864.7063635,107014.17990464352
866.2403094,94338.80468785511
867.778383,82941.22315808732
869.3205793999999,72875.05904464095
870.8668935000001,63972.427185964785
872.4173199999999,56125.52867552271
873.9718536,49276.025414478776
875.5304886,43293.759152407234
877.0932193,38158.80559640124
878.6600399,33686.803771548395
880.2309443,29739.35129457298
881.8059264000001,26120.055287252682
883.3849798,22804.046260033087
884.9680981,19749.757825731333
886.5552747000002,16862.142316048292
888.1465029,14146.787363960331
889.7417757000001,11569.155556185571
891.3410862,9090.57184702946
892.9444273,6825.763449366958
894.5517916000001,4938.185893382236
896.1631719000001,3421.8530887420116
897.7785605,2209.524925941165
899.3979498,1303.306992236457
901.0213321,660.9184241964713
902.6486994999999,256.61736409407644
904.280044,73.1600683633893
905.9153574999999,34.8168960149347
907.5546319,13.697765457150387
909.1978586000001,4.806466342541204
910.8450295,-3.375389010866936
912.4961357999999,-1.945838213316483
914.1511691,2.143651113792037
915.8101205,-5.588724546315235
917.4729812999999,-0.08471660525111632
919.1397426000001,-3.16334733574574
920.8103953,0.44153892578025145
922.4849303,4.762325317972104
924.1633386,0.33673904885507033
925.8456108999999,-2.954393976771409
927.5317377999999,1.1213101835771502
929.2217099999999,-1.1784167152442042
930.9155178999999,-0.19598201456030925
932.6131521,2.6236856557359998
934.3146027999999,3.5088089645537477
936.0198606,-1.4092467872262948
937.7289155,3.357051064217856
939.4417579,-0.1433549982058296
941.1583778999999,3.4924909085186995
942.8787656,1.7552833197681612
944.6029108999999,1.0438529115219704
946.3308041000001,1.61116527028671
948.0624349,-1.6406580822307812
949.7977933,0.030362754661561117
951.5368692,1.0054468414848572
953.2796523,2.8825024563870287
955.0261327,2.038386217692225
956.7762999,-0.9961022088620024
958.5301437,0.3059147389799099
960.2876538999999,-0.9832630871108788
962.0488201,-2.0465408019560334
963.813632,-3.145091001415989
965.5820792999999,-1.6500203217407448
967.3541517000001,-3.9316277846970467
969.1298386,2.105018682888055
970.9091298000001,1.7033514814049606
972.6920149,-2.722886210281976
974.4784835,-0.4818640940231268
976.2685251,-0.3512474515183997
978.0621292999999,-4.374340339645181
979.8592858999999,-0.1795326001418748
981.6599843,1.1326973448076738
983.4642142000001,-1.3699780389486216
985.2719651000001,1.4194941617328218
987.0832268999999,-2.0340671427426784
988.897989,0.5951808195257647
990.7162412,0.8251880571268331
992.5379731,0.5697323218961414
994.3631744999999,-0.13053539135431672
996.191835,-2.5234487474089846
998.0239445000001,-1.4046168974828863
999.8594926000001,-1.7215177142476341
1001.6984689999999,0.1940873766338494
1003.540864,-2.4828015120146354
1005.386668,-0.2560380296789093
1007.235869,-1.0135027700346122
1009.0884580000001,-1.3882057339090028
1010.944426,-1.4595044843212577
1012.8037619999999,2.695458672122457
1014.666456,-1.7623914860927488
1016.532498,3.563393467847685
1018.4018779999999,0.13265498876472553
1020.2745880000001,2.036567084308109
1022.150616,-4.73185969603898
1024.029953,-1.7019446622146523
1025.912591,-1.3569396311604591
1027.798518,-1.7565954216705633
1029.6877259999999,-0.98573078831702
1031.580205,0.4841937252135517
1033.475945,0.8186167813122637
1035.3749380000002,2.5893260434548018
1037.277175,1.538102537464364
1039.1826449999999,-2.0127188922791954
1041.09134,2.6250894347966467
1043.003251,0.2137404881779373
1044.9183679999999,-0.05735758101213913
1046.836683,0.7728066703273068
1048.758188,3.079024708981095
1050.682872,1.7863592040068756
1052.6107279999999,-0.9875552316154448
1054.541747,0.8450681541709223
1056.4759210000002,0.5606905164531844
1058.41324,2.214747155831732
1060.353697,-0.1533507103623259
1062.297282,-3.1936625878301363
1064.243989,-6.004355355014276
1066.1938089999999,1.6975392031795646
1068.146734,-1.8391697537208151
1070.1027550000001,-1.0996296138543131
1072.0618650000001,0.8926713113443641
1074.024056,2.2107648134886464
1075.989321,-2.4650492132498067
1077.957651,0.11396640129515785
1079.92904,-0.18329301908348966
1081.9034800000002,-0.046890427709171865
1083.880963,0.5263171524006843
1085.861482,-1.851421895764164
1087.8450300000002,-6.139452158509519
1089.8316,1.0452978241809137
1091.821185,0.6195830011674871
1093.8137789999998,-1.4805380120059908
1095.809373,1.2906043979323651
1097.8079619999999,2.1492273529488672
1099.809539,-3.3220401098019128
1101.814098,-1.537096291258454
1103.821631,0.007906631702036393
1105.832134,-2.1531000536644527
1107.845599,-0.7926893699795251
1109.86202,2.503761549973071
1111.881392,-0.6177094560758585
1113.903708,0.3290869249148223
1115.928963,0.5084663976066376
1117.95715,-3.21678856285876
1119.988266,8.169563144433084
1122.022303,1.5253068517161972
1124.059256,1.4447075733119104
1126.0991199999999,-2.5808377851177244
1128.14189,-0.9040874498717548
1130.187561,3.972113333271448
1132.236128,-0.5412237463108102
1134.287585,4.314379566733125
1136.341929,4.255241897195631
1138.3991529999998,1.4313692304324184
1140.4592539999999,-3.404023483986996
1142.522228,0.1816331403763769
1144.588069,3.863679554842628
1146.6567730000002,-3.4902806207111072
1148.728337,-1.9529579972561035
1150.802756,-2.11108147379605
1152.880025,-1.6966405414913488
1154.960142,-0.105771641564989
1157.043103,-2.007424095440849
1159.128903,1.5101879639007243
1161.217539,-1.2707803859532956
1163.309007,-1.6088168442043729
1165.403305,-0.2854351464978734
1167.500429,-0.2318604988213212
1169.600375,5.244425619413729
1171.703141,-0.3598242128999051
1173.808724,0.5960893920615735
1175.9171199999998,-1.695980205503507
1178.028327,5.594719062335947
1180.142342,-3.1662252468634144
1182.2591630000002,-2.600837846433364
1184.3787869999999,-3.9830133739580793
1186.501211,-3.0645119998042705
1188.626434,-4.027902566048485
1190.754453,3.576076168894012
1192.885266,2.1834699265565725
1195.018872,3.5306646372434707
1197.155267,-1.7863604935888322
1199.294451,-1.4098738447388452
1201.436421,1.3447175603885484
1203.581177,0.15074280934268708
1205.728716,-0.6985203527169997
1207.879037,-2.150148155800509
1210.0321390000001,-3.4702164059011134
1212.1880199999998,-5.685252992198982
1214.34668,1.3408588789875713
1216.508117,-1.116145151764825
1218.67233,-1.0972949528412084
1220.839319,1.6395589452154935
1223.009083,0.8382538233734821
1225.1816210000002,-2.433560623507381
1227.3569320000001,-1.7098067006761948
1229.535016,3.0466741908067663
1231.715873,-0.27026019465961554
1233.8995029999999,0.6209385064913527
1236.0859039999998,-0.3954802998828016
1238.275078,4.150383565006839
1240.467024,-4.858997991625262
1242.6617410000001,-0.4146635079837357
