wave,flux
1817.164934,-3.441682486260145
1790.1022050000001,0.9604262208152816
1763.812741,-12.367983756667746
1738.2646949999998,15.214788535737394
1713.427949,27.556785060052682
1689.273995,327.1021205264798
1665.7758310000002,1060.0675299812383
1642.907862,2202.4214846174305
1620.64581,3791.532968657377
1598.9666300000001,5824.154300396956
1577.8484310000001,8307.13364204838
1557.270407,11235.139341781067
1537.212767,14605.581389744919
1517.65668,17962.755523686705
1498.5842089999999,21015.16499649547
1479.978265,23799.55355581184
1461.822555,26312.638320136008
1444.101535,28492.287387823042
1426.800368,30377.47123045008
1409.904887,31976.861972747003
1393.401553,33225.39882113061
1377.2774220000001,34432.50803673445
1361.520115,35649.27515194307
1346.117782,36803.4959601074
1331.059081,37977.61018857589
1316.3331449999998,39141.10693025794
1301.92956,40333.628562067446
1287.838342,41569.328637129314
1274.049912,42804.94962506851
1260.5550779999999,44081.703414100324
1247.345017,45436.88179894893
1234.4112519999999,46833.437251095645
1221.74564,48388.68715421307
1209.340352,49971.68718589372
1197.187859,51629.80049549926
1185.28092,53377.458637282434
1173.612564,55241.49875863327
1162.1760800000002,57119.43021262433
1150.9650060000001,59113.870495324416
1139.973115,61130.253414101826
1129.194406,63263.48844015492
1118.623093,65450.42007274424
1108.253594,67721.6499746617
1098.0805269999998,70096.09737036335
1088.098695,72493.05527691124
1078.303081,74968.1422360948
1068.688841,77697.44081550516
1059.251295,80776.67186797854
1049.9859199999999,84128.20364871959
1040.8883449999998,87886.96209032762
1031.9543429999999,92170.20749331603
1023.1798259999999,97042.48059419387
1014.5608390000001,102539.58186127552
1006.0935529999999,108459.42802133072
997.774265,114763.03350032342
989.5993858999999,121435.42883407367
981.5654412999999,128100.70945628252
973.6690651,135019.19290728398
965.9069952,141713.83365638414
958.2760697000001,148235.71753162207
950.7732231000001,154397.18502789788
943.3954827,160187.07073920002
936.1399648,165757.17931254074
929.0038716,170834.51293287118
921.9844879000001,175638.29198217034
915.0791782,180054.29193519306
908.2853836000002,184500.38317625347
901.6006193,188889.84296837304
895.0224714,193666.6623542928
888.548595,199123.68444524886
882.1767113,204866.97269083405
875.9046055,211922.65765142316
869.7301242999998,220228.23239392755
863.6511742999999,230010.1864699215
857.6657193,241801.66540345942
851.7717787,255817.96842108268
845.9674256000001,272195.8494929986
840.2507849,292563.98041668034
834.6200316000001,315257.24020790245
829.0733892000001,341834.05561924865
823.6091279,371900.2213172749
818.2255633999999,403921.8605196893
812.9210552000001,440357.9033645893
807.694005,477718.89986252773
802.5428559,515509.80259491544
797.4660904,553104.76387775
792.4622299,591584.1833394975
787.5298327,631896.3485978597
782.6674933999999,677776.6464218458
777.8738417999999,730490.8251462246
773.1475413,796210.010545692
768.4872882999999,877844.7733187681
763.8918112000001,985686.7054481971
759.3598692,1120092.9103376293
754.8902515999999,1282818.1392285705
750.4817767999999,1468273.613058754
746.1332914,1679657.447400988
741.8436694000001,1901097.7036150591
737.6118116,2130431.200636325
733.4366444,2353369.033277892
729.3171195,2565486.620191209
725.2522127999999,2758605.085406492
721.2409241,2942765.8480256787
717.282276,3127066.4616583493
713.3753136,3328743.484435842
709.5191037000001,3546853.6248501586
705.7127343,3780546.8727098135
701.9553139,4042829.392849346
698.2459709,4329667.30553457
694.5838534,4639569.503035023
690.9681281000001,4947716.100070324
687.3979803,5231829.736056324
683.8726131,5471621.978429743
680.3912472999999,5667360.575000168
676.9531202000001,5819178.147344719
673.557486,5926651.1353028165
670.2036149,5996952.290148429
666.8907926,6030590.849050492
663.6183202999999,6042805.622270734
660.3855139,6041005.831095148
657.1917038,6042085.9315346675
654.0362346,6041465.925101825
650.9184646000001,6041146.537851217
647.8377654,6039455.436399759
644.7935217999999,6042933.674499485
641.7851312999999,6042002.853218152
638.8120038,6041004.862142552
635.8735614,6041255.099091205
632.9692378999999,6040634.850015796
630.0984786,6043511.137499065
627.2607402000001,6041475.882854602
624.4554901,6042425.871754927
621.6822068,6041484.361952683
618.940379,6042140.253986354
616.2295054,6041797.992316838
613.549095,6041528.504602906
610.8986664,6041327.537312135
608.2777476,6041001.683768806
605.6858758999999,6041676.194823071
603.1225977000001,6041214.025854547
600.5874682,6041353.8916809065
598.0800512,6041534.051416643
595.5999188999999,6041593.216312882
593.1466518,6041388.102756511
590.7198384999999,6041273.839508233
588.3190752,6041314.852995697
585.943966,6040917.131535335
583.5941226,6041613.529504447
581.2691637,6041605.387684826
578.9687155,6041171.636876723
576.692411,6041620.4627882475
574.4398902,6041020.0732228225
572.2107997,6041015.484894538
570.0047927,6041406.660940427
567.8215287,6041477.661760718
565.6606737000001,6041429.665049889
563.5218996,6041694.920260033
561.4048845,6041132.758456987
559.3093121,6041707.6741295885
557.2348721,6041208.213802779
555.1812597,6041537.167752887
553.1481756000001,6041216.135151851
551.1353259,6041110.120415513
549.1424218999999,6041333.483113862
547.1691801,6041712.8881376125
545.2153222000001,6041280.8765361635
543.2805745000001,6041589.827926617
541.3646685,6041748.950279331
539.46734,6041132.665487894
537.5883299,6041319.092006358
535.7273833,6041255.998613702
533.8842498,6041618.122531261
532.0586836,6040998.227834145
530.2504428000001,6041717.305567706
528.45929,6041203.98369895
526.6849915,6041319.266159924
524.927318,6041335.76099722
523.186044,6041330.313837145
521.4609475999999,6041040.83059478
519.7518110000001,6041217.752137824
518.0584200000001,6041184.465026649
516.3805639,6041438.529657138
514.7180356,6041799.376519954
513.0706316000001,6041555.9887746675
511.43815149999995,6041418.823704099
509.82039860000003,6041070.611094806
508.2171791999999,6041791.670321068
506.628303,6041358.951524397
505.05358269999994,6041389.129572626
503.4928341,6041054.583289574
501.9458762,6041085.422524032
500.41253059999997,6041214.955935381
498.8926222,6041536.635252712
497.3859785,6041586.105716975
495.89242989999997,6041415.217501856
494.4118094,6041397.056978367
492.943953,6041301.082739928
491.488699,6041166.315484017
490.04588839999997,6041291.392105664
488.6153648,6041747.866645527
487.19697429999997,6041184.306901955
485.7905654,6041088.635069988
484.39598889999996,6041304.535495545
483.01309800000007,6041395.47694803
481.64174840000004,6041329.915381169
480.28179789999996,6041529.1693010535
478.93310639999993,6041792.925824769
477.59553619999997,6041478.580979654
476.2689517,6041526.150842254
474.9532192,6041048.483354455
473.6482074,6041424.80830534
472.35378679999997,6041355.672569314
471.06982989999995,6041340.58303904
469.79621110000005,6041885.790920237
468.53280700000005,6041727.137454644
467.2794956999999,6041223.984606313
466.0361575,6041411.181320605
464.80267410000005,6041439.1291258335
463.5789295,6041361.295289465
462.364809,6040998.967133558
461.1601998,6041357.517527685
459.9649909,6041198.673175971
458.7790727,6041452.87003547
457.6023374,6041172.594936716
456.4346788,6041207.136359087
455.2759921,6041568.8958992325
454.12617439999997,6041001.659645385
452.9851239,6041005.746161731
451.85274060000006,6041571.591753078
450.7289258,6041035.715209836
449.6135822,6041709.555187622
448.5066141,6040936.312210859
447.407927,6041105.504706223
446.317428,6041355.147473651
445.23502520000005,6041398.857213818
444.1606283,6041530.323961836
443.0941482,6041278.558980823
442.03549699999996,6041081.120028666
440.9845882,6041733.812268721
439.9413364,6041149.159262791
438.9056575,6041230.827228445
437.87746860000004,6041241.416190487
436.85668780000003,6041229.0276464615
435.8432345,6041291.882851262
434.83702930000004,6041606.47008236
433.83799369999997,6041460.72398036
432.84605039999997,6041070.276147726
431.8611232,6041571.444589588
430.8831369,6041998.216903337
429.9120175,6041667.969051038
428.94769169999995,6041475.635583867
427.9900874,6041887.147715123
427.03913370000004,6041607.332680248
426.0947602,6041718.676154175
425.1568978,6041534.080004292
424.22547829999996,6041624.011249331
423.3004343,6041367.230385864
422.3816994,6041647.843595712
421.4692081,6041308.362788993
420.56289569999996,6041796.333595126
419.66269850000003,6041618.771568939
418.7685535,6041151.014057326
417.8803987,6041412.0667082025
416.9981727,6041325.968793566
416.12181519999996,6041020.554389096
415.25126639999996,6041772.412083536
414.38646760000006,6041063.421482254
413.5273605,6039187.866941393
412.673888,6031935.938021053
411.8259934,6017799.2044587275
410.9836208,5995721.354882206
410.14671519999996,5963344.915146758
409.3152221,5920675.8751491085
408.48908789999996,5867915.2674200665
407.66825960000006,5805664.799221745
406.8526847,5738029.460991623
406.0423117,5668888.61624978
405.2370896,5603672.857318413
404.43696800000004,5544495.91998949
403.64189730000004,5490416.796001633
402.8518283,5442574.776549214
402.0667126,5396561.816887983
401.28650239999996,5350501.214657991
400.5111505,5298112.770772744
399.7406101,5233304.426953147
398.9748353,5150750.410579729
398.2137806,5046747.5300825285
397.457401,4919351.801517419
396.7056521,4768913.545395098
395.9584903,4596124.74664162
395.2158722,4404088.9576851465
394.4777551,4197003.773470627
393.7440968,3979708.338802558
393.0148555,3756787.0942349886
392.2899901,3531726.942831094
391.56946,3308699.7206204836
390.853225,3090309.2981286133
390.1412452,2878443.669440395
389.43348169999996,2673588.4134904644
388.7298955,2476474.920937824
388.03044839999995,2287196.249512928
387.3351027,2104388.17813793
386.6438209,1928978.4134356761
385.95656610000003,1760227.7959420762
385.2733019,1598325.5841635081
384.5939922,1444166.4202092022
383.9186014,1298910.8421039614
383.2470943,1162409.4327237036
382.5794362,1036574.2190811088
381.9155926,921410.7045585377
381.2555296,817717.0604788427
380.59921360000004,725767.1802009444
379.9466115,645177.3333907325
379.29769039999996,575450.1711787964
378.652418,515974.9732212738
378.0107622,465667.862361421
377.37269130000004,423403.65163328784
376.73817410000004,388294.88360267883
376.1071796,358941.7735089715
375.47967719999997,334250.22831852274
374.8556368,313564.8699313806
374.2350283,295779.075589328
373.6178223,280483.73841673305
373.0039896,266848.1266391577
372.3935012,254497.60569670761
371.78632860000005,243371.15348989965
371.1824436,233073.4512593625
370.5818182,223553.54337437038
369.98442489999996,214636.7722521128
369.39023629999997,206347.7712723656
368.7992255,198612.19626541066
368.2113658,191278.75119859143
367.6266307,184388.23386349168
367.0449943,177839.54783355922
366.4664305,171473.60491318008
365.89091410000003,165421.54649294022
365.3184196,159518.31185320395
364.7489221,153701.05255431376
364.18239689999996,147965.82369588266
363.61881960000005,142286.192554214
363.058166,136724.87501482552
362.50041219999997,131182.35456757405
361.94553460000003,125726.17536100658
361.3935098,120342.4278990023
360.8443147,115073.8853610001
360.29792630000003,109890.98240596447
359.754322,104910.07186061968
359.2134795,100150.25519009028
358.6753765,95545.6824825832
358.1399912,91149.60868431113
357.6073018,86951.64031177599
357.077287,82920.37278250714
356.5499253,79035.00100185393
356.025196,75303.7308552415
355.50307799999996,71660.65943235082
354.983551,68147.1773911925
354.4665945,64703.455538652226
353.95218839999995,61399.99262899577
353.4403127,58224.304534941926
352.9309478,55223.36392592577
352.42407410000004,52405.537085894335
351.9196722,49801.14276532047
351.4177232,47330.03211901705
350.91820789999997,45012.4765460406
350.4211078,42831.51705955402
349.9264043,40739.26975442529
349.434079,38754.61075527984
348.9441137,36805.99859781946
348.45649060000005,34875.107678069035
347.97119169999996,33009.11412586309
347.48819960000003,31229.533482387866
347.0074967,29537.760693592238
346.5290657,27965.29550968
346.0528897,26500.459041450147
345.5789517,25126.838880349733
345.1072349,23829.676551778306
344.6377228,22598.076590155048
344.17039889999995,21413.72584901247
343.70524710000007,20229.193938018634
343.24225110000003,19010.662483214768
342.7813952,17776.13037438973
342.32266339999995,16511.502163241785
341.8660403,15241.271014748672
341.4115102,13982.15017780889
340.959058,12743.77650221782
340.5086685,11563.21247637131
340.06032660000005,10430.648787167916
339.6140175,9348.784313350428
339.1697264,8350.883378300563
338.7274388,7432.735432768725
338.28714019999995,6581.620620593735
337.8488164,5821.715618521798
337.41245310000005,5130.713956771167
336.9780363,4513.264863787308
336.5455522,3954.4693124825844
336.114987,3449.058866491495
335.686327,2975.113100249554
335.2595588,2540.9426677485285
334.834669,2144.9223159618828
334.4116443,1779.1595722859383
333.9904716,1436.1526517056077
333.57113799999996,1127.455333499288
333.1536305,857.7807196126138
332.73793639999997,634.5411268179366
332.32404310000004,448.03142525105454
331.91193799999996,308.09445563090765
331.5016088,196.18431798756416
331.0930432,120.83456828902573
330.6862289,73.13118926115413
330.281154,42.64035047362128
329.8778065,17.435475531205746
329.47617460000004,7.949223333012358
329.07624649999997,0.2903902705899233
328.6780106,-2.188174363908809
328.2814555,1.8362717137482387
327.88656960000003,-0.5415860417337807
327.4933418,-5.704583941405238
327.1017607,2.3995203730274848
326.7118154,-1.1914767041549734
326.32349480000005,0.20046138799793814
325.93678789999996,-3.2768771901000138
325.5516841,-3.6512797125204433
325.16817260000005,0.8954778224453794
324.7862428,0.4475172928217098
324.40588419999995,-3.4135236545007985
324.0270864,1.227470462116958
323.649839,3.682961439591432
323.2741319,-1.829761657388807
322.8999548,0.8936656749792379
322.5272977,2.6793165572850746
322.1561508,0.4589550878124774
321.786504,-0.03939704882794252
321.4183476,-3.2691960983956867
321.0516719,-1.2322021234925062
320.6864673,-1.4457963355578458
320.3227243,1.0014998814462348
319.96043330000003,-0.7799706628270882
319.5995851,-1.6936303240807984
319.2401704,-0.6407098662394843
318.8821799,-3.9484740504281497
318.5256045,-0.9102569566984859
318.1704352,2.386050665081046
317.8166631,4.002728991094276
317.4642791,-2.609775724925332
317.1132746,1.7878206428590966
316.76364069999994,-0.4883052447885817
316.4153688,-1.7077607664136891
316.06845039999996,1.305559967783187
315.72287689999996,-0.5029507552296826
315.37863980000003,-1.9026065591455876
315.0357308,-0.9343024978052596
314.6941415,-3.0491991743741336
314.3538639,0.8199014926965736
314.0148896,-3.6925112922701873
313.6772106,-2.5476699892576327
313.3408189,-0.43001292204135294
313.00570639999995,-2.179397646438729
312.67186549999997,0.4025092661546257
312.33928810000003,0.65650726486827
312.0079665,9.445046215510537
311.6778931,6.329485817142216
311.34906010000003,2.9610792663208887
311.0214601,-3.2829802768058425
310.6950856,0.8377989948379349
310.369929,-2.3827918554624605
310.04598300000004,1.0132727697042443
309.7232403,4.109530258441741
309.4016935,0.9886910082858704
309.0813356,-1.868967914763304
308.7621594,-1.4610262089539825
308.4441577,-2.332876662682922
308.1273236,-2.4414690729820645
307.8116501,-4.389326802261326
307.49713019999996,2.0263699158740143
307.18375710000004,-2.600064686115305
306.871524,-0.8523331021837031
306.5604242,-0.5885753545651689
306.2504509,-1.4496418686678982
