wave,flux
1817.164934,3.7479981810421634
1790.1022050000001,-0.09957126725273556
1763.812741,7.9976712424645235
1738.2646949999998,20.048090722410823
1713.427949,72.27870371586104
1689.273995,365.0438192780693
1665.7758310000002,1024.834657650562
1642.907862,2101.947073913839
1620.64581,3653.031489357917
1598.9666300000001,5691.745993282049
1577.8484310000001,8324.202584455783
1557.270407,11477.563563563306
1537.212767,15246.487154995315
1517.65668,19268.55031190043
1498.5842089999999,23376.451830736612
1479.978265,27418.54361896229
1461.822555,31458.62398255673
1444.101535,35399.47246751082
1426.800368,39136.06640214265
1409.904887,42754.85310525851
1393.401553,46128.84762314769
1377.2774220000001,49496.01599570811
1361.520115,52799.221887422806
1346.117782,56108.309443437625
1331.059081,59439.60967950798
1316.3331449999998,62773.80791289468
1301.92956,66179.98036532546
1287.838342,69655.31551776397
1274.049912,73055.02256885846
1260.5550779999999,76522.88628038022
1247.345017,80068.66875803884
1234.4112519999999,83617.40361034022
1221.74564,87257.15071468509
1209.340352,90942.45728071703
1197.187859,94610.9614005692
1185.28092,98380.16907224203
1173.612564,102399.99823199256
1162.1760800000002,106193.54296639393
1150.9650060000001,110105.86871995496
1139.973115,114162.06967127946
1129.194406,117950.20721330078
1118.623093,121938.89137266883
1108.253594,125868.29866218443
1098.0805269999998,129846.09872318391
1088.098695,133832.9009070428
1078.303081,137881.2357430211
1068.688841,142036.84316365368
1059.251295,146483.93432841648
1049.9859199999999,150954.18244122132
1040.8883449999998,156122.9227577633
1031.9543429999999,161549.5892370576
1023.1798259999999,167651.5638560047
1014.5608390000001,174331.0177203508
1006.0935529999999,181540.47896382443
997.774265,189464.71171890298
989.5993858999999,198012.97186493888
981.5654412999999,206893.1695847662
973.6690651,216136.43390516413
965.9069952,225272.4506706267
958.2760697000001,234791.60856432907
950.7732231000001,243783.47967013164
943.3954827,252887.75254104586
936.1399648,261251.07118893065
929.0038716,269566.7593634898
921.9844879000001,277738.07547546417
915.0791782,285436.9907320094
908.2853836000002,293012.94439292245
901.6006193,300593.7863795225
895.0224714,308212.2407251892
888.548595,316511.45363281976
882.1767113,325072.8909912957
875.9046055,335194.4362301693
869.7301242999998,346079.7198821355
863.6511742999999,358954.26638131775
857.6657193,373134.9378066246
851.7717787,390669.7463884885
845.9674256000001,410006.44527409563
840.2507849,433457.9708896617
834.6200316000001,458871.3965150746
829.0733892000001,490306.6567131999
823.6091279,524425.4523282475
818.2255633999999,564317.0913477322
812.9210552000001,606935.29504025
807.694005,653494.7108134169
802.5428559,702388.1251286179
797.4660904,753136.9906193186
792.4622299,809219.2894044231
787.5298327,866329.088969867
782.6674933999999,930212.2282550806
777.8738417999999,1003193.5366838728
773.1475413,1091129.3247452972
768.4872882999999,1198221.8527342759
763.8918112000001,1329095.7812884338
759.3598692,1489777.9767742688
754.8902515999999,1684680.1787835252
750.4817767999999,1914208.525147929
746.1332914,2170552.140834111
741.8436694000001,2456596.518942142
737.6118116,2759863.1364080133
733.4366444,3078165.3411043533
729.3171195,3398448.779186958
725.2522127999999,3719680.470668757
721.2409241,4034088.60513576
717.282276,4337118.621291571
713.3753136,4614588.95458256
709.5191037000001,4876039.512548772
705.7127343,5109159.609023834
701.9553139,5326537.960368256
698.2459709,5514250.0578071615
694.5838534,5670548.40001837
690.9681281000001,5790685.843738269
687.3979803,5884278.454959933
683.8726131,5952811.366498292
680.3912472999999,5994464.526306872
676.9531202000001,6024734.718281299
673.557486,6036442.734335776
670.2036149,6041781.5799100315
666.8907926,6044312.046221544
663.6183202999999,6041025.191867125
660.3855139,6042313.6356155025
657.1917038,6040324.899400579
654.0362346,6042620.349875831
650.9184646000001,6041312.044331897
647.8377654,6041553.56176498
644.7935217999999,6039963.242383325
641.7851312999999,6041099.346308817
638.8120038,6042021.347639991
635.8735614,6040713.973021273
632.9692378999999,6039223.33304025
630.0984786,6042474.777539819
627.2607402000001,6042502.327033027
624.4554901,6040978.398306852
621.6822068,6042439.805679497
618.940379,6041918.214549629
616.2295054,6041357.62161302
613.549095,6041779.650755414
610.8986664,6041331.029465804
608.2777476,6041819.116413472
605.6858758999999,6041698.56083991
603.1225977000001,6041562.903144695
600.5874682,6041463.398798282
598.0800512,6041662.812412528
595.5999188999999,6040895.7978865085
593.1466518,6041208.872296544
590.7198384999999,6041600.378357319
588.3190752,6041699.171612238
585.943966,6041397.580541446
583.5941226,6041447.147597512
581.2691637,6041564.442016756
578.9687155,6041471.3599069575
576.692411,6041641.501588297
574.4398902,6041853.182173758
572.2107997,6041579.502795408
570.0047927,6041418.559777962
567.8215287,6041269.225534159
565.6606737000001,6041305.625542765
563.5218996,6041359.701851651
561.4048845,6041212.55852217
559.3093121,6041196.346926733
557.2348721,6041480.980354868
555.1812597,6041368.671058847
553.1481756000001,6041495.95740655
551.1353259,6041882.1471764175
549.1424218999999,6041553.243931321
547.1691801,6041940.465927703
545.2153222000001,6041521.889846993
543.2805745000001,6041276.828790967
541.3646685,6041091.183638077
539.46734,6040706.757862988
537.5883299,6040920.646824824
535.7273833,6041389.887921541
533.8842498,6042087.112215888
532.0586836,6041497.694195868
530.2504428000001,6041182.9807305485
528.45929,6041247.854445154
526.6849915,6041478.9362161085
524.927318,6041166.367740129
523.186044,6041619.423997932
521.4609475999999,6041602.390698291
519.7518110000001,6041275.79523802
518.0584200000001,6041285.356406883
516.3805639,6041407.319939338
514.7180356,6041681.714172858
513.0706316000001,6041203.8802583935
511.43815149999995,6041432.608618286
509.82039860000003,6041024.998933154
508.2171791999999,6041565.9665073315
506.628303,6041252.820853032
505.05358269999994,6041764.438374608
503.4928341,6041223.5403933935
501.9458762,6042081.34627138
500.41253059999997,6041435.950879918
498.8926222,6041821.849272542
497.3859785,6041454.398361988
495.89242989999997,6041414.946926975
494.4118094,6041502.097040921
492.943953,6041354.749567775
491.488699,6041319.470814353
490.04588839999997,6041467.131851288
488.6153648,6041677.5927445935
487.19697429999997,6041314.961373067
485.7905654,6041404.794513457
484.39598889999996,6041154.166043597
483.01309800000007,6041547.033888138
481.64174840000004,6041458.195029239
480.28179789999996,6041251.757584772
478.93310639999993,6041294.260889998
477.59553619999997,6041576.722573494
476.2689517,6041415.353166939
474.9532192,6041525.192364397
473.6482074,6041403.608910978
472.35378679999997,6041634.893096416
471.06982989999995,6041141.824544872
469.79621110000005,6041337.379043788
468.53280700000005,6041779.201946418
467.2794956999999,6041325.651902395
466.0361575,6041357.26428012
464.80267410000005,6041352.074025247
463.5789295,6041378.791727425
462.364809,6041558.801846781
461.1601998,6041202.670927505
459.9649909,6041458.784975395
458.7790727,6039207.924558215
457.6023374,6031880.516696645
456.4346788,6016759.7398142535
455.2759921,5991754.71557833
454.12617439999997,5954678.871151829
452.9851239,5902123.939170316
451.85274060000006,5832869.960642598
450.7289258,5743147.848567341
449.6135822,5636580.94879824
448.5066141,5514708.328155084
447.407927,5382221.229863063
446.317428,5241155.581092047
445.23502520000005,5094557.139950232
444.1606283,4947198.575863021
443.0941482,4802207.313290525
442.03549699999996,4662190.662075872
440.9845882,4528477.799245503
439.9413364,4401578.101460018
438.9056575,4280267.989115707
437.87746860000004,4165577.781595063
436.85668780000003,4054546.6316066063
435.8432345,3946379.058017384
434.83702930000004,3839336.9096894604
433.83799369999997,3733115.46264685
432.84605039999997,3625335.610993445
431.8611232,3516704.6001096033
430.8831369,3406552.5473133433
429.9120175,3295674.4718275517
428.94769169999995,3185052.1533934018
427.9900874,3075198.342864825
427.03913370000004,2967879.721490752
426.0947602,2863440.813088118
425.1568978,2762557.966653673
424.22547829999996,2666554.8887343323
423.3004343,2574952.8787944783
422.3816994,2488074.166917901
421.4692081,2405434.948464129
420.56289569999996,2326510.8021896225
419.66269850000003,2251584.694264417
418.7685535,2179160.2921054983
417.8803987,2109156.7886395245
416.9981727,2041021.2502440044
416.12181519999996,1974534.4038295285
415.25126639999996,1909120.3527521791
414.38646760000006,1844539.8172740939
413.5273605,1780851.4028249928
412.673888,1717972.7774236745
411.8259934,1656212.4804399603
410.9836208,1595733.6671049504
410.14671519999996,1536475.0151897452
409.3152221,1479243.036843093
408.48908789999996,1423456.1200659743
407.66825960000006,1369526.4867633895
406.8526847,1317292.5452936722
406.0423117,1266637.8976767394
405.2370896,1217328.675449285
404.43696800000004,1169125.3850752015
403.64189730000004,1121778.1209922044
402.8518283,1074865.1237471022
402.0667126,1028711.3266373286
401.28650239999996,982817.1314982842
400.5111505,937315.3159989758
399.7406101,892123.5417300814
398.9748353,847397.9536872553
398.2137806,803228.8392110061
397.457401,759853.8600698891
396.7056521,717441.6240078708
395.9584903,676426.5394633495
395.2158722,636990.7461587737
394.4777551,599221.1088200646
393.7440968,563803.432433102
393.0148555,530855.5375288571
392.2899901,500279.37528605654
391.56946,472056.38924780977
390.853225,446220.41889187455
390.1412452,422364.2878119843
389.43348169999996,400269.55247722624
388.7298955,379724.5796680723
388.03044839999995,360076.5012625651
387.3351027,341117.5198888494
386.6438209,322661.66620341624
385.95656610000003,304629.2889929181
385.2733019,286663.89778511354
384.5939922,268876.7465254112
383.9186014,251215.38512718465
383.2470943,233818.8948418443
382.5794362,216706.4904178336
381.9155926,200064.5084710788
381.2555296,183957.61282040368
380.59921360000004,168610.94801658814
379.9466115,154035.54001674903
379.29769039999996,140472.60325623013
378.652418,127958.20586435775
378.0107622,116538.5894860484
377.37269130000004,106304.48458406443
376.73817410000004,97168.85406709554
376.1071796,89134.45920127777
375.47967719999997,82093.20493042987
374.8556368,75933.25940766183
374.2350283,70610.1287402402
373.6178223,65925.03888129846
373.0039896,61788.207727391615
372.3935012,58099.486156056366
371.78632860000005,54814.46620554025
371.1824436,51795.47017352348
370.5818182,49059.97376852131
369.98442489999996,46481.14620429087
369.39023629999997,44098.5331403427
368.7992255,41860.578207605016
368.2113658,39764.93805916419
367.6266307,37801.677073021776
367.0449943,35965.60588941564
366.4664305,34228.122683640286
365.89091410000003,32585.263318995734
365.3184196,31052.98272419131
364.7489221,29606.95998217325
364.18239689999996,28224.386322038812
363.61881960000005,26901.806829241432
363.058166,25635.576519632632
362.50041219999997,24426.51237080438
361.94553460000003,23251.469169195763
361.3935098,22119.976454673968
360.8443147,21022.37551254293
360.29792630000003,19975.138459650694
359.754322,18952.47304607629
359.2134795,17991.38786718688
358.6753765,17069.987113153427
358.1399912,16197.889234415034
357.6073018,15353.057608948364
357.077287,14559.734820470734
356.5499253,13794.773996350883
356.025196,13056.830976601092
355.50307799999996,12352.817608821675
354.983551,11685.558240154443
354.4665945,11028.265955807195
353.95218839999995,10407.284595928697
353.4403127,9812.570869777248
352.9309478,9246.719948102
352.42407410000004,8710.032126599483
351.9196722,8197.102732593274
351.4177232,7716.472175760611
350.91820789999997,7255.075545011817
350.4211078,6828.565020765815
349.9264043,6416.576976529427
349.434079,6037.704534845303
348.9441137,5662.687992402323
348.45649060000005,5311.249856694963
347.97119169999996,4977.562239309092
347.48819960000003,4653.287558522955
347.0074967,4350.161266870456
346.5290657,4058.708614151944
346.0528897,3784.285949788864
345.5789517,3521.961003801189
345.1072349,3272.969502727597
344.6377228,3039.47346346836
344.17039889999995,2814.2800909996936
343.70524710000007,2602.320190862516
343.24225110000003,2398.1279743794785
342.7813952,2207.666193468157
342.32266339999995,2028.7434645810574
341.8660403,1861.69231695142
341.4115102,1706.553313706543
340.959058,1561.2848873302612
340.5086685,1428.1315630463787
340.06032660000005,1303.271395074156
339.6140175,1195.9036873227694
339.1697264,1088.3616900192853
338.7274388,1002.370380320185
338.28714019999995,912.6949935535744
337.8488164,834.4525944847188
337.41245310000005,763.7040634750574
336.9780363,696.9543362443865
336.5455522,639.329200220341
336.114987,577.4103905676886
335.686327,523.0913331534459
335.2595588,471.90810799766325
334.834669,417.86204551259215
334.4116443,367.8917203194885
333.9904716,320.84092885503975
333.57113799999996,277.189882933607
333.1536305,230.58290146892887
332.73793639999997,192.8366295406869
332.32404310000004,159.34615799965349
331.91193799999996,126.53482180784113
331.5016088,97.77996539121487
331.0930432,72.93160777970999
330.6862289,52.773265967689426
330.281154,35.2045652362881
329.8778065,21.014058151908788
329.47617460000004,14.458005176495428
329.07624649999997,10.378548484125364
328.6780106,1.7886023963242264
328.2814555,0.7984620706743748
327.88656960000003,0.1690975046300751
327.4933418,-3.326828270041742
327.1017607,-3.4516013483097834
326.7118154,-0.16413163671610484
326.32349480000005,-3.999056181081931
325.93678789999996,3.229777908586831
325.5516841,-0.9643484880549396
325.16817260000005,-6.073580508240575
324.7862428,3.190645463309324
324.40588419999995,-1.2143918927914614
324.0270864,1.2353858361682637
323.649839,0.4673951230104009
323.2741319,2.99910617721831
322.8999548,-1.6421902133771904
322.5272977,-4.0274739209130095
322.1561508,3.0091076311243667
321.786504,-2.5437033211259736
321.4183476,-3.38550951894448
321.0516719,-0.6909731957931213
320.6864673,-1.7224445315030192
320.3227243,1.8796302966698828
319.96043330000003,2.4526078404668428
319.5995851,3.2441402458548736
319.2401704,1.6472305382731598
318.8821799,0.9595014004730787
318.5256045,-0.035952553510312645
318.1704352,0.2947125174181356
317.8166631,0.8342198081810742
317.4642791,-1.7316715257087167
317.1132746,0.5134927292422501
316.76364069999994,-5.304583614030318
316.4153688,-0.3504820627334536
316.06845039999996,4.346554918575524
315.72287689999996,-2.9515088738588084
315.37863980000003,-6.84373316717227
315.0357308,0.7010092798470268
314.6941415,0.5848663566050071
314.3538639,-2.215587826837179
314.0148896,-3.05800736649474
313.6772106,-4.519528540109542
313.3408189,0.2313961729091744
313.00570639999995,-0.4677537329508543
312.67186549999997,-6.283831914021107
312.33928810000003,-3.265858281703322
312.0079665,-0.27469128250679103
311.6778931,-0.4277350578850581
311.34906010000003,1.1343167287334728
311.0214601,2.1417859939054957
310.6950856,1.213593945518626
310.369929,-2.04317541590135
310.04598300000004,1.4692233064695914
309.7232403,1.8424396510838168
309.4016935,-0.03966632876159135
309.0813356,3.0690419841852314
308.7621594,2.3756110100854952
308.4441577,-0.1909982906423684
308.1273236,-0.3889933204034303
307.8116501,1.7711977675349562
307.49713019999996,-0.27967049480978706
307.18375710000004,-1.7939304117805082
306.871524,0.35227932898279984
306.5604242,-0.3772896572531724
306.2504509,0.4017129614939186
