wave,flux
1817.164934,99.9222478992902
1790.1022050000001,-103.84791858546652
1763.812741,-75.13186162940457
1738.2646949999998,209.25905224734447
1713.427949,91.75281612940607
1689.273995,4818.314402041593
1665.7758310000002,15998.395021940169
1642.907862,33537.814607748325
1620.64581,57898.92021852173
1598.9666300000001,88322.49672349756
1577.8484310000001,125315.41950479387
1557.270407,167976.82017115786
1537.212767,217033.56431644995
1517.65668,263719.9594824349
1498.5842089999999,304473.01270306995
1479.978265,339654.5595268297
1461.822555,369124.96646016656
1444.101535,392373.90346813493
1426.800368,410540.6656718871
1409.904887,423220.5903994449
1393.401553,430712.4028088673
1377.2774220000001,435596.60229401244
1361.520115,441384.62197915604
1346.117782,446974.95123071264
1331.059081,452893.8059147793
1316.3331449999998,458656.3686927668
1301.92956,464480.8521369774
1287.838342,470904.3067281756
1274.049912,476246.319245153
1260.5550779999999,482949.9290097911
1247.345017,488768.2267904265
1234.4112519999999,494858.9605519599
1221.74564,501133.5389605287
1209.340352,507549.25221236784
1197.187859,513674.1540449772
1185.28092,520480.7995315037
1173.612564,526670.2398014964
1162.1760800000002,532796.768639816
1150.9650060000001,539293.0922028815
1139.973115,545577.2639525936
1129.194406,551806.0006304815
1118.623093,558459.410820703
1108.253594,565062.7917354846
1098.0805269999998,571417.1272824653
1088.098695,578831.2582999291
1078.303081,586242.2610303976
1068.688841,595910.1559366088
1059.251295,608734.8207144014
1049.9859199999999,625064.2512724134
1040.8883449999998,646490.1012181337
1031.9543429999999,676069.1939074807
1023.1798259999999,712432.1280660746
1014.5608390000001,755932.4853975434
1006.0935529999999,806355.0795544252
997.774265,861518.6290107481
989.5993858999999,921606.2378927885
981.5654412999999,982531.9689139441
973.6690651,1041973.2947053008
965.9069952,1097667.1360954312
958.2760697000001,1147562.6347581735
950.7732231000001,1190133.5910995922
943.3954827,1224061.110810377
936.1399648,1248395.459259563
929.0038716,1264651.3629875844
921.9844879000001,1271791.730285224
915.0791782,1273945.2084144957
908.2853836000002,1271645.7117797844
901.6006193,1269231.5156273942
895.0224714,1273632.614234911
888.548595,1284232.0800876238
882.1767113,1309566.596564915
875.9046055,1346904.5766714257
869.7301242999998,1405667.6689711858
863.6511742999999,1489288.643611171
857.6657193,1593749.1412008582
851.7717787,1734978.7598507325
845.9674256000001,1914516.9173989715
840.2507849,2135810.572288104
834.6200316000001,2397372.6767291655
829.0733892000001,2710198.53496214
823.6091279,3058585.217688176
818.2255633999999,3437882.2240969967
812.9210552000001,3841192.9514766494
807.694005,4243291.25944728
802.5428559,4632228.615613371
797.4660904,4984455.4548789915
792.4622299,5289464.166673703
787.5298327,5535938.934735252
782.6674933999999,5723884.541241762
777.8738417999999,5860554.159341275
773.1475413,5949714.388463744
768.4872882999999,6004105.243672928
763.8918112000001,6028483.551367547
759.3598692,6040884.256031899
754.8902515999999,6045421.856236582
750.4817767999999,6041147.428727812
746.1332914,6036636.321890308
741.8436694000001,6039402.985305795
737.6118116,6043506.716116868
733.4366444,6037741.039881341
729.3171195,6042299.3351086825
725.2522127999999,6040038.088380076
721.2409241,6040495.052856322
717.282276,6041628.860871827
713.3753136,6040680.88967644
709.5191037000001,6042770.129044708
705.7127343,6046287.11930238
701.9553139,6042019.4886786025
698.2459709,6044712.00522037
694.5838534,6040813.018102695
690.9681281000001,6039479.842519848
687.3979803,6042986.708132307
683.8726131,6044252.317822559
680.3912472999999,6041230.254920753
676.9531202000001,6038361.246178382
673.557486,6043914.3092927635
670.2036149,6040537.38281062
666.8907926,6041681.847722998
663.6183202999999,6042109.3101258185
660.3855139,6042830.857270129
657.1917038,6042063.140515465
654.0362346,6041547.9270300325
650.9184646000001,6044568.840728262
647.8377654,6040307.631795159
644.7935217999999,6043455.398338334
641.7851312999999,6041661.967543715
638.8120038,6041518.519491764
635.8735614,6039968.871412712
632.9692378999999,6041392.598314466
630.0984786,6041055.037731059
627.2607402000001,6042179.872753448
624.4554901,6042971.84742243
621.6822068,6041463.121016088
618.940379,6042176.185984667
616.2295054,6040873.391450035
613.549095,6041330.685253536
610.8986664,6041392.847168933
608.2777476,6041464.539407987
605.6858758999999,6041453.858781093
603.1225977000001,6041538.919830573
600.5874682,6041186.1904212
598.0800512,6041819.240642008
595.5999188999999,6041329.768304986
593.1466518,6041278.194487452
590.7198384999999,6041412.982844258
588.3190752,6041613.05651924
585.943966,6041230.609157178
583.5941226,6041226.076962737
581.2691637,6041342.679619725
578.9687155,6041581.165849224
576.692411,6036906.444539481
574.4398902,6018577.485639351
572.2107997,5979916.3740706025
570.0047927,5923297.589040095
567.8215287,5853715.827813547
565.6606737000001,5777586.108447652
563.5218996,5702742.57535645
561.4048845,5628693.790906345
559.3093121,5563666.601466777
557.2348721,5527953.67744307
555.1812597,5530339.866394437
553.1481756000001,5566845.114014474
551.1353259,5630906.169827504
549.1424218999999,5707002.216992249
547.1691801,5781784.173596904
545.2153222000001,5855515.405574345
543.2805745000001,5925358.273319965
541.3646685,5980207.249106132
539.46734,6016219.029571821
537.5883299,6035922.861136781
535.7273833,6041598.391185148
533.8842498,6041562.493023843
532.0586836,6041600.839733913
530.2504428000001,6041607.729703614
528.45929,6041758.014600665
526.6849915,6041158.633493197
524.927318,6041110.068141008
523.186044,6041118.696881077
521.4609475999999,6041384.917162297
519.7518110000001,6041628.709925775
518.0584200000001,6041525.458033147
516.3805639,6041622.389962066
514.7180356,6040916.861741689
513.0706316000001,6041789.218567952
511.43815149999995,6041636.012251543
509.82039860000003,6040971.590547468
508.2171791999999,6041413.29714155
506.628303,6041204.055051858
505.05358269999994,6041607.788680926
503.4928341,6042207.493496609
501.9458762,6041531.571499238
500.41253059999997,6041301.066557882
498.8926222,6041233.771640995
497.3859785,6040908.228515772
495.89242989999997,6041242.7610556185
494.4118094,6041438.909309898
492.943953,6041239.652305652
491.488699,6041274.67495427
490.04588839999997,6041187.730948725
488.6153648,6041367.997763532
487.19697429999997,6041230.926196492
485.7905654,6041505.50978544
484.39598889999996,6041384.571821799
483.01309800000007,6041492.913929991
481.64174840000004,6041173.524112677
480.28179789999996,6041354.493574511
478.93310639999993,6041250.0900779385
477.59553619999997,6041591.319153908
476.2689517,6041401.801352982
474.9532192,6041837.512584325
473.6482074,6041257.098672795
472.35378679999997,6041539.664697986
471.06982989999995,6041502.086852685
469.79621110000005,6041658.363078166
468.53280700000005,6041335.327324204
467.2794956999999,6040959.071538327
466.0361575,6041343.670791493
464.80267410000005,6041467.211514208
463.5789295,6041326.233035935
462.364809,6041272.400675517
461.1601998,6041409.883098758
459.9649909,6041072.022867051
458.7790727,6042004.422320096
457.6023374,6041636.160394927
456.4346788,6041413.842266139
455.2759921,6041235.519235332
454.12617439999997,6041273.3216890665
452.9851239,6042054.817366806
451.85274060000006,6041378.51762225
450.7289258,6041368.317208646
449.6135822,6041548.208339637
448.5066141,6041324.51760682
447.407927,6041343.074492423
446.317428,6041763.932431687
445.23502520000005,6041631.0029671565
444.1606283,6041531.239800965
443.0941482,6041533.893876238
442.03549699999996,6041524.810020663
440.9845882,6041456.441294054
439.9413364,6041440.608336442
438.9056575,6041806.28193368
437.87746860000004,6041549.404641784
436.85668780000003,6041653.244837876
435.8432345,6041378.767979323
434.83702930000004,6041215.686027541
433.83799369999997,6041296.992114545
432.84605039999997,6041446.622103128
431.8611232,6041788.64221524
430.8831369,6041729.862905557
429.9120175,6041468.61775675
428.94769169999995,6041492.706886238
427.9900874,6041613.608770832
427.03913370000004,6041640.946091913
426.0947602,6041586.2867819825
425.1568978,6041144.187378286
424.22547829999996,6041096.390478954
423.3004343,6041681.409398926
422.3816994,6041311.080804482
421.4692081,6041520.344992023
420.56289569999996,6041515.0624441225
419.66269850000003,6041395.799200005
418.7685535,6041331.091699055
417.8803987,6041382.502414097
416.9981727,6041536.034984567
416.12181519999996,6041032.103898535
415.25126639999996,6041587.201929199
414.38646760000006,6041334.793774229
413.5273605,6041108.182765148
412.673888,6041012.661422683
411.8259934,6041399.108394412
410.9836208,6041417.097670128
410.14671519999996,6041686.699133005
409.3152221,6040805.671134448
408.48908789999996,6041729.7362637
407.66825960000006,6041635.301182916
406.8526847,6041202.230715721
406.0423117,6041328.8465274535
405.2370896,6041329.955258367
404.43696800000004,6041343.355262776
403.64189730000004,6041711.707745767
402.8518283,6041367.119175375
402.0667126,6040976.722020202
401.28650239999996,6041514.117436796
400.5111505,6041059.6461590985
399.7406101,6041182.423694262
398.9748353,6041866.278875687
398.2137806,6041567.702027165
397.457401,6041548.427895179
396.7056521,6041284.22160819
395.9584903,6041427.158310045
395.2158722,6041342.179190714
394.4777551,6041397.760024953
393.7440968,6041449.597253527
393.0148555,6042020.226559431
392.2899901,6041600.3938408
391.56946,6041476.95519347
390.853225,6041132.299435061
390.1412452,6041372.264586435
389.43348169999996,6035398.70737315
388.7298955,6016578.037258799
388.03044839999995,5977303.155995007
387.3351027,5911865.587112429
386.6438209,5813576.99389978
385.95656610000003,5678397.220103217
385.2733019,5501161.425557436
384.5939922,5277957.1766678635
383.9186014,5016427.922938268
383.2470943,4728279.5285373
382.5794362,4423547.630076048
381.9155926,4112613.597983264
381.2555296,3802839.3749702615
380.59921360000004,3502660.5967378695
379.9466115,3217535.704578497
379.29769039999996,2952908.8698502304
378.652418,2707105.8586369776
378.0107622,2478621.580644384
377.37269130000004,2263821.2862439784
376.73817410000004,2062098.8092201909
376.1071796,1872361.5672824883
375.47967719999997,1693563.205811346
374.8556368,1527483.283422262
374.2350283,1374325.3388957598
373.6178223,1235228.9770044864
373.0039896,1110997.1064134724
372.3935012,1001540.9449525336
371.78632860000005,906968.9795872923
371.1824436,825700.9429658152
370.5818182,756890.369974248
369.98442489999996,698951.3211365824
369.39023629999997,650271.0989571264
368.7992255,608686.2722362073
368.2113658,573113.4896588932
367.6266307,542475.0799442204
367.0449943,515691.1978713401
366.4664305,492083.85978979897
365.89091410000003,470779.3585898992
365.3184196,451410.272311799
364.7489221,433636.26116771717
364.18239689999996,417082.4475999668
363.61881960000005,401721.92838462186
363.058166,386771.5226284129
362.50041219999997,372291.053892035
361.94553460000003,358258.58665011596
361.3935098,344578.3257872523
360.8443147,331218.4379314517
360.29792630000003,318281.2409785644
359.754322,305719.9880310452
359.2134795,293620.76874158764
358.6753765,282205.3405223532
358.1399912,271424.09946953296
357.6073018,261148.5562165113
357.077287,251341.07195640774
356.5499253,242036.8597339641
356.025196,232989.8030550969
355.50307799999996,224184.3144422137
354.983551,215608.4245418931
354.4665945,207108.83326110148
353.95218839999995,198686.57596203263
353.4403127,190404.83904973362
352.9309478,182212.1465812809
352.42407410000004,174115.84810693542
351.9196722,166199.55185189465
351.4177232,158563.33347801954
350.91820789999997,151164.45760680438
350.4211078,144086.28676002575
349.9264043,137225.30362392092
349.434079,130580.25133956637
348.9441137,124233.75914879356
348.45649060000005,118193.5580081663
347.97119169999996,112485.54076118377
347.48819960000003,106963.50255089538
347.0074967,101603.37643399864
346.5290657,96314.76256587924
346.0528897,91304.7682924252
345.5789517,86638.21234803306
345.1072349,82252.93159076612
344.6377228,78006.5973513638
344.17039889999995,73841.5730000209
343.70524710000007,69764.29379854817
343.24225110000003,65978.05325050447
342.7813952,62303.97305989536
342.32266339999995,58618.58104307749
341.8660403,54907.152860527334
341.4115102,51124.72379995131
340.959058,47391.51899638881
340.5086685,43857.95810579682
340.06032660000005,40495.191446664925
339.6140175,37190.151259561266
339.1697264,34186.36465616447
338.7274388,31491.105272799083
338.28714019999995,29048.504094098986
337.8488164,26907.42084911313
337.41245310000005,25035.474576517274
336.9780363,23286.83814690606
336.5455522,21624.407792219212
336.114987,20049.481585570356
335.686327,18425.302094935425
335.2595588,16761.75518382764
334.834669,15120.783992784684
334.4116443,13504.878987586875
333.9904716,11865.40733327374
333.57113799999996,10289.016309829305
333.1536305,8848.545977736187
332.73793639999997,7578.385984155468
332.32404310000004,6531.048429394763
331.91193799999996,5663.475990480364
331.5016088,4923.542551156299
331.0930432,4274.867421542788
330.6862289,3725.390532668816
330.281154,3263.022459293927
329.8778065,2825.935516913086
329.47617460000004,2392.379758857574
329.07624649999997,1939.2441285505774
328.6780106,1487.4996981077572
328.2814555,1085.9808012715016
327.88656960000003,755.2986577802792
327.4933418,497.3105051983568
327.1017607,292.2867813900371
326.7118154,142.11036295135668
326.32349480000005,47.95531046201332
325.93678789999996,7.508215407701062
325.5516841,0.9501088955312714
325.16817260000005,2.2068025162002884
324.7862428,1.6857563977250432
324.40588419999995,-2.1170147485563313
324.0270864,0.5235142275280347
323.649839,0.9156900740465445
323.2741319,-3.989269486540141
322.8999548,3.8809290075325658
322.5272977,-1.0317565223456526
322.1561508,0.5818600405454745
321.786504,-1.6498788783692822
321.4183476,-2.670436887217929
321.0516719,-0.0424255140614395
320.6864673,0.30739780139911843
320.3227243,-0.8604853025273872
319.96043330000003,0.2853138808084813
319.5995851,-1.4330647077530332
319.2401704,1.6969072981249156
318.8821799,-1.142791898697424
318.5256045,-3.643615251681382
318.1704352,-3.2093878212579696
317.8166631,-1.989007876519772
317.4642791,1.2579025248123417
317.1132746,5.5163565314229075
316.76364069999994,-3.346468272779246
316.4153688,-2.2144989829782724
316.06845039999996,2.1180167384628166
315.72287689999996,1.5192736859129774
315.37863980000003,3.1996571573716053
315.0357308,-0.14749462868225066
314.6941415,-3.8607038082906016
314.3538639,0.5748865890513886
314.0148896,4.532521693944077
313.6772106,-0.7526233309788295
313.3408189,-1.9465449822999736
313.00570639999995,0.4636503330887333
312.67186549999997,-0.3156922139021834
312.33928810000003,1.6774269089115217
312.0079665,-3.5108298046652617
311.6778931,-0.14335236650595776
311.34906010000003,0.34047824861640863
311.0214601,-4.071366796742491
310.6950856,1.4230689732159498
310.369929,0.6893751486407699
310.04598300000004,-0.38445383752270734
309.7232403,0.4881576942555112
309.4016935,-0.003831245209515533
309.0813356,2.4103139120618704
308.7621594,-2.3085349648844296
308.4441577,-0.35684492550430913
308.1273236,-0.055826256755183566
307.8116501,-0.9185576773631404
307.49713019999996,-0.5960373009890414
307.18375710000004,-5.171718862025071
306.871524,-1.1860458090751356
306.5604242,-1.9879822905436293
306.2504509,1.0314247327302166
