wave,flux
1817.164934,-29.08535689497808
1790.1022050000001,-8.900314946085063
1763.812741,9.21933169531433
1738.2646949999998,87.08530332842605
1713.427949,343.8947354082032
1689.273995,940.1828728172712
1665.7758310000002,3377.209346651297
1642.907862,7951.943215605627
1620.64581,14740.006980733226
1598.9666300000001,23622.054951706297
1577.8484310000001,34952.815812889676
1557.270407,48661.51000581907
1537.212767,64905.78960704349
1517.65668,83217.13332576597
1498.5842089999999,100932.76005075943
1479.978265,117861.00798264303
1461.822555,134010.12300299198
1444.101535,149299.7141039759
1426.800368,163446.32148253435
1409.904887,176182.6885024161
1393.401553,187461.9863020404
1377.2774220000001,197608.65851370926
1361.520115,207378.65604027285
1346.117782,217050.2838208681
1331.059081,226238.19863740128
1316.3331449999998,235209.28398436052
1301.92956,243465.9544899684
1287.838342,251339.46249064105
1274.049912,258837.7288480144
1260.5550779999999,265375.243691365
1247.345017,271551.656465363
1234.4112519999999,277135.0738754216
1221.74564,282187.5720781784
1209.340352,286733.47658279893
1197.187859,291121.6641384025
1185.28092,295754.5856408999
1173.612564,300255.61074093194
1162.1760800000002,304403.3475830498
1150.9650060000001,309480.56759714714
1139.973115,313721.34573934466
1129.194406,318911.27430866665
1118.623093,323831.36240081984
1108.253594,328890.65051723435
1098.0805269999998,334256.1120963844
1088.098695,339609.1826304102
1078.303081,345143.1668896814
1068.688841,351709.90604614513
1059.251295,358676.9338424111
1049.9859199999999,367143.2821369231
1040.8883449999998,377242.5971012468
1031.9543429999999,389601.9762585821
1023.1798259999999,404812.52028494823
1014.5608390000001,422757.98759669927
1006.0935529999999,443000.95319814846
997.774265,465544.86955974007
989.5993858999999,490594.3380709247
981.5654412999999,516895.54380451725
973.6690651,544035.6907750783
965.9069952,571166.9797699965
958.2760697000001,597992.8256500735
950.7732231000001,622910.5786605998
943.3954827,646923.819918044
936.1399648,668698.1561903508
929.0038716,687890.069389546
921.9844879000001,705875.3430854522
915.0791782,721457.9159198757
908.2853836000002,735180.6145990508
901.6006193,748705.4525795869
895.0224714,762410.8895117617
888.548595,778520.5092928895
882.1767113,797613.9168994545
875.9046055,819486.8882969094
869.7301242999998,846843.8460792311
863.6511742999999,881418.4887121498
857.6657193,923302.3392863595
851.7717787,975813.4790928976
845.9674256000001,1039646.3040782909
840.2507849,1117725.169251853
834.6200316000001,1214525.5676397085
829.0733892000001,1326248.4818491286
823.6091279,1458501.8326298194
818.2255633999999,1611789.4323110625
812.9210552000001,1777701.7797011996
807.694005,1960002.164831901
802.5428559,2151736.633771152
797.4660904,2345459.980197566
792.4622299,2553195.892117469
787.5298327,2767566.657161356
782.6674933999999,3004578.749583438
777.8738417999999,3263679.327102292
773.1475413,3538923.401088398
768.4872882999999,3832709.6339098825
763.8918112000001,4145256.341300509
759.3598692,4468055.355525091
754.8902515999999,4791442.788318296
750.4817767999999,5095793.048061926
746.1332914,5360633.322869819
741.8436694000001,5575991.086999458
737.6118116,5747797.212269652
733.4366444,5872140.673331362
729.3171195,5959904.371978855
725.2522127999999,6013732.88602984
721.2409241,6035101.5711019775
717.282276,6037922.7247264935
713.3753136,6039471.018954515
709.5191037000001,6040861.539649933
705.7127343,6038621.199840163
701.9553139,6041109.54339816
698.2459709,6040767.939558563
694.5838534,6041609.00373392
690.9681281000001,6041531.251091228
687.3979803,6040715.8913717
683.8726131,6041952.723201937
680.3912472999999,6041429.239116972
676.9531202000001,6040655.348957877
673.557486,6040355.34839326
670.2036149,6041788.899798431
666.8907926,6039738.528997616
663.6183202999999,6042504.331615201
660.3855139,6042604.019925145
657.1917038,6041491.854791055
654.0362346,6040811.045170064
650.9184646000001,6039261.572023122
647.8377654,6039617.04774862
644.7935217999999,6040196.027825752
641.7851312999999,6040345.300388775
638.8120038,6042299.881491182
635.8735614,6040918.3348567635
632.9692378999999,6041739.897070421
630.0984786,6039839.187677444
627.2607402000001,6040897.266883452
624.4554901,6041304.895042637
621.6822068,6040871.864215137
618.940379,6041403.795164241
616.2295054,6041170.787751994
613.549095,6041054.480019033
610.8986664,6041680.599233193
608.2777476,6041277.257458717
605.6858758999999,6041716.370247607
603.1225977000001,6041768.155628994
600.5874682,6041485.054777699
598.0800512,6041533.5382847
595.5999188999999,6041379.242815123
593.1466518,6041098.558080628
590.7198384999999,6041384.601838892
588.3190752,6041719.66440162
585.943966,6041522.430666675
583.5941226,6041301.657220525
581.2691637,6041427.530388294
578.9687155,6041202.901573108
576.692411,6041108.562566658
574.4398902,6041511.410205665
572.2107997,6041270.5304361535
570.0047927,6041488.1538728075
567.8215287,6041235.5394587675
565.6606737000001,6040981.031148418
563.5218996,6041099.806783007
561.4048845,6041258.314140108
559.3093121,6041665.5846844325
557.2348721,6041067.487065977
555.1812597,6041356.006920166
553.1481756000001,6041578.654960336
551.1353259,6041666.81463367
549.1424218999999,6041554.587725177
547.1691801,6041347.859489564
545.2153222000001,6041637.5182674285
543.2805745000001,6041726.764456215
541.3646685,6041214.760036212
539.46734,6041495.11685022
537.5883299,6041238.071641721
535.7273833,6041434.86810401
533.8842498,6041165.5332075935
532.0586836,6041192.838316096
530.2504428000001,6041750.778822485
528.45929,6041434.476360473
526.6849915,6041646.735652192
524.927318,6041759.59509181
523.186044,6041225.63497444
521.4609475999999,6040803.892120388
519.7518110000001,6041669.13346133
518.0584200000001,6041388.027114612
516.3805639,6041452.747336176
514.7180356,6041075.808004586
513.0706316000001,6041584.58985704
511.43815149999995,6041544.998134862
509.82039860000003,6041527.157558975
508.2171791999999,6040890.7489523785
506.628303,6041761.393429095
505.05358269999994,6041647.147839823
503.4928341,6041594.075264487
501.9458762,6041107.153336788
500.41253059999997,6041133.564838774
498.8926222,6041657.4196791
497.3859785,6041124.341097491
495.89242989999997,6041365.052826753
494.4118094,6041489.308585433
492.943953,6041231.2374827815
491.488699,6041480.691181517
490.04588839999997,6041514.723971683
488.6153648,6041253.030747662
487.19697429999997,6041442.593844892
485.7905654,6041523.207522743
484.39598889999996,6041402.033416075
483.01309800000007,6041459.305409221
481.64174840000004,6042131.082488397
480.28179789999996,6042039.176137658
478.93310639999993,6041621.348487873
477.59553619999997,6041430.8289545085
476.2689517,6041575.610832772
474.9532192,6041678.256589768
473.6482074,6041227.619350808
472.35378679999997,6041165.398856735
471.06982989999995,6041527.64448647
469.79621110000005,6041387.626105085
468.53280700000005,6041573.474672402
467.2794956999999,6041596.558947549
466.0361575,6041468.089394175
464.80267410000005,6041309.3218421815
463.5789295,6040525.889870289
462.364809,6033343.74709046
461.1601998,6015839.384760335
459.9649909,5983351.910162074
458.7790727,5931894.8851419315
457.6023374,5858251.083953332
456.4346788,5756829.142064887
455.2759921,5626529.558235928
454.12617439999997,5464620.810565793
452.9851239,5279461.549921147
451.85274060000006,5077211.191325647
450.7289258,4864965.1915910635
449.6135822,4649818.3295124285
448.5066141,4441257.217310622
447.407927,4246641.494714358
446.317428,4076957.235701418
445.23502520000005,3940366.1089066467
444.1606283,3841871.154443297
443.0941482,3785807.219783803
442.03549699999996,3774616.32568486
440.9845882,3807140.8692402607
439.9413364,3879158.296565928
438.9056575,3981817.0314990636
437.87746860000004,4102293.873382949
436.85668780000003,4225807.451569193
435.8432345,4336904.090129374
434.83702930000004,4420347.185939025
433.83799369999997,4462424.406615969
432.84605039999997,4455539.994654275
431.8611232,4396459.840964098
430.8831369,4286639.177478355
429.9120175,4134434.131573997
428.94769169999995,3948714.310467805
427.9900874,3742582.913192287
427.03913370000004,3528461.5625880132
426.0947602,3317639.3307339894
425.1568978,3119519.853065632
424.22547829999996,2940779.9782209545
423.3004343,2785395.9754388058
422.3816994,2654063.3566334746
421.4692081,2547152.7148827533
420.56289569999996,2461045.264721347
419.66269850000003,2393446.321386183
418.7685535,2341905.223031408
417.8803987,2302009.698360484
416.9981727,2271381.635006904
416.12181519999996,2247191.6011939477
415.25126639999996,2227642.973148457
414.38646760000006,2211095.3462848426
413.5273605,2195934.07140665
412.673888,2180876.6251366483
411.8259934,2165055.404705055
410.9836208,2147945.9658301645
410.14671519999996,2129384.8871569163
409.3152221,2107751.1687747664
408.48908789999996,2083279.951055042
407.66825960000006,2054822.5982373103
406.8526847,2021947.7186574573
406.0423117,1983686.6339669381
405.2370896,1939399.851801249
404.43696800000004,1888179.2437744343
403.64189730000004,1829221.8511147103
402.8518283,1762453.481900324
402.0667126,1687245.2779993927
401.28650239999996,1604037.7642737888
400.5111505,1513500.3720004675
399.7406101,1414289.4913407653
398.9748353,1307962.2970517871
398.2137806,1196890.9599437122
397.457401,1082431.9806908132
396.7056521,966897.2057723464
395.9584903,853075.911708231
395.2158722,742229.4588012347
394.4777551,636446.7618397302
393.7440968,541879.0996947421
393.0148555,458935.2291878052
392.2899901,387056.5945215322
391.56946,327218.20202619483
390.853225,278665.0549392949
390.1412452,240028.09657050375
389.43348169999996,210300.89924186692
388.7298955,188058.4597020566
388.03044839999995,169951.3827775981
387.3351027,154858.61817446302
386.6438209,142910.55892319145
385.95656610000003,132727.39880572047
385.2733019,123945.28358024686
384.5939922,116268.19788536846
383.9186014,109638.15974335512
383.2470943,103747.63895200599
382.5794362,98514.56405719195
381.9155926,93965.39834651144
381.2555296,89701.3613717803
380.59921360000004,85592.33806359499
379.9466115,81610.7344116247
379.29769039999996,77790.23287560798
378.652418,74096.42563814815
378.0107622,70726.82311227616
377.37269130000004,67656.59183999931
376.73817410000004,64851.245631783866
376.1071796,62332.920115852045
375.47967719999997,60039.46599581793
374.8556368,57972.194127330666
374.2350283,56084.7658092509
373.6178223,54314.40751406748
373.0039896,52523.795289219786
372.3935012,50687.51205402597
371.78632860000005,48831.72503708025
371.1824436,46909.003780983825
370.5818182,45002.96698178874
369.98442489999996,43125.64351344142
369.39023629999997,41290.30834823314
368.7992255,39518.82094723935
368.2113658,37831.534749661936
367.6266307,36224.955852564264
367.0449943,34730.229721730764
366.4664305,33321.271890796816
365.89091410000003,31978.14225678252
365.3184196,30680.077697014476
364.7489221,29452.826326515988
364.18239689999996,28182.220497760758
363.61881960000005,26907.816277166738
363.058166,25581.081358816547
362.50041219999997,24243.35876220283
361.94553460000003,22874.019762313063
361.3935098,21448.20073420939
360.8443147,20012.8477168584
360.29792630000003,18589.22738682181
359.754322,17281.53692520017
359.2134795,16125.998257995006
358.6753765,15101.475943615336
358.1399912,14196.535489567901
357.6073018,13412.252828154047
357.077287,12752.143210934893
356.5499253,12189.126227445402
356.025196,11713.393327313644
355.50307799999996,11253.21287161619
354.983551,10796.829401710931
354.4665945,10321.898721613285
353.95218839999995,9885.780694472884
353.4403127,9460.260900787964
352.9309478,9024.948687935965
352.42407410000004,8600.758513272047
351.9196722,8190.55631814304
351.4177232,7798.67536732077
350.91820789999997,7427.238908306428
350.4211078,7062.3724572343135
349.9264043,6701.018603655147
349.434079,6313.82928311164
348.9441137,5950.901895246344
348.45649060000005,5583.194720640314
347.97119169999996,5210.1188579302225
347.48819960000003,4846.4447100213365
347.0074967,4476.871830503626
346.5290657,4094.959958420712
346.0528897,3716.07615584894
345.5789517,3364.651594353701
345.1072349,3017.668783348325
344.6377228,2684.694852359524
344.17039889999995,2354.6066737421634
343.70524710000007,2023.96015158635
343.24225110000003,1712.218806718575
342.7813952,1421.0123541449518
342.32266339999995,1143.7291825773998
341.8660403,871.7989829950716
341.4115102,635.3121559193229
340.959058,443.6235103157453
340.5086685,290.79569184092566
340.06032660000005,174.64348280020093
339.6140175,82.85243849971425
339.1697264,30.238218250984268
338.7274388,4.871761025143621
338.28714019999995,-2.6640976744987834
337.8488164,-2.9820750329156995
337.41245310000005,-3.557760946339234
336.9780363,1.456597211336919
336.5455522,2.8945923913448914
336.114987,0.4608447292034017
335.686327,0.7659183462870238
335.2595588,-0.9239955645699724
334.834669,0.7557195314888309
334.4116443,-0.6649512604663795
333.9904716,0.8680491869237754
333.57113799999996,0.047369845835772736
333.1536305,-1.3583914167857531
332.73793639999997,0.07476882985931795
332.32404310000004,-2.4528351288716985
331.91193799999996,-1.4470668777453015
331.5016088,-3.1969857861568065
331.0930432,-5.647633941146222
330.6862289,-2.663482487823096
330.281154,-1.3122181391521195
329.8778065,3.4650951814437074
329.47617460000004,3.6370692313078425
329.07624649999997,3.8313071045064255
328.6780106,-1.9618088488683993
328.2814555,-6.275788737388827
327.88656960000003,-5.052201097320089
327.4933418,0.38113015514247
327.1017607,6.188361606113378
326.7118154,-0.7821533755541006
326.32349480000005,-0.9920880419934694
325.93678789999996,-1.5987608448533461
325.5516841,4.113600795283831
325.16817260000005,1.1392547627276393
324.7862428,-3.0427541288089075
324.40588419999995,-1.8077406549300452
324.0270864,1.70953254422551
323.649839,2.1666505479440468
323.2741319,0.1124914788247674
322.8999548,-1.1721884243491951
322.5272977,-4.263702678032619
322.1561508,1.418581291363039
321.786504,0.14062077091913944
321.4183476,-1.0453532255218871
321.0516719,2.833465417647314
320.6864673,-3.397356452629145
320.3227243,3.101914116155002
319.96043330000003,2.4477299137558943
319.5995851,1.3490099804528106
319.2401704,-1.1714774241387151
318.8821799,0.14305578060560806
318.5256045,-2.9711184770814514
318.1704352,0.3009003604725742
317.8166631,1.6344521625093522
317.4642791,0.8213950739525471
317.1132746,2.2115101709967733
316.76364069999994,-2.0456404221011613
316.4153688,0.07067751775110613
316.06845039999996,0.8052457722526086
315.72287689999996,4.841276095212228
315.37863980000003,-3.213424246057707
315.0357308,0.5641369943795005
314.6941415,-1.0820596167965553
314.3538639,0.7460965862032142
314.0148896,1.973416033600217
313.6772106,-1.0917617600344245
313.3408189,2.8459223476334574
313.00570639999995,1.5885210222787074
312.67186549999997,1.834803704568176
312.33928810000003,0.8098820798605332
312.0079665,4.831162141267988
311.6778931,0.7527046136399409
311.34906010000003,2.2472722958509
311.0214601,3.0170496360565195
310.6950856,1.2600076811414844
310.369929,-1.8167367283089684
310.04598300000004,-2.9118599100598885
309.7232403,0.7641293558392147
309.4016935,-3.89077052095538
309.0813356,-3.0281858263291177
308.7621594,-1.2427409000865746
308.4441577,-1.29661308275599
308.1273236,2.9087208307903727
307.8116501,1.4881036145646391
307.49713019999996,3.63065955228459
307.18375710000004,3.044671036953692
306.871524,-0.08243001375217568
306.5604242,2.273194969646537
306.2504509,-3.330338553660482
