wave,flux
1817.164934,-17.490613029074545
1790.1022050000001,-20.81186314539216
1763.812741,-2.491384878979631
1738.2646949999998,-16.354892803935627
1713.427949,22.87294501665753
1689.273995,1008.883420616702
1665.7758310000002,3725.327828849212
1642.907862,8084.543804539901
1620.64581,14056.463923954858
1598.9666300000001,21609.8955415034
1577.8484310000001,30824.24651431781
1557.270407,41598.661117593176
1537.212767,53923.953682554544
1517.65668,66133.72804462652
1498.5842089999999,76874.84258237499
1479.978265,86243.4978264194
1461.822555,94322.12201931336
1444.101535,100956.65041449148
1426.800368,106230.57654077667
1409.904887,110289.20730457432
1393.401553,112996.17714242874
1377.2774220000001,115143.68163714015
1361.520115,117401.19696362445
1346.117782,119519.07052079047
1331.059081,121756.06383444232
1316.3331449999998,123963.10297792824
1301.92956,126185.4906536507
1287.838342,128463.273701516
1274.049912,130645.36179001242
1260.5550779999999,132911.45647492952
1247.345017,135358.38530757296
1234.4112519999999,137719.0381290981
1221.74564,140419.16929381626
1209.340352,143131.87729270168
1197.187859,146069.08997656096
1185.28092,148982.11181252473
1173.612564,152084.61034497386
1162.1760800000002,155255.93822869338
1150.9650060000001,158675.27313358453
1139.973115,161753.8032765364
1129.194406,164912.55381674928
1118.623093,167904.35745860694
1108.253594,170988.8263240825
1098.0805269999998,173889.94928014578
1088.098695,176982.73255189825
1078.303081,180391.3621319096
1068.688841,183727.92274575145
1059.251295,188050.66198093933
1049.9859199999999,193398.89673771372
1040.8883449999998,200108.27733416398
1031.9543429999999,208561.15015553407
1023.1798259999999,218808.87256697254
1014.5608390000001,230916.59630915392
1006.0935529999999,244787.15164972725
997.774265,260456.47803925406
989.5993858999999,277060.8700158005
981.5654412999999,294038.81860774144
973.6690651,311108.93766376213
965.9069952,327021.94381429127
958.2760697000001,342318.768300881
950.7732231000001,355376.752739148
943.3954827,366367.26229244476
936.1399648,374959.4938486949
929.0038716,381268.9207324165
921.9844879000001,385370.4583844616
915.0791782,388431.14231840905
908.2853836000002,390237.9644405372
901.6006193,392040.53078748717
895.0224714,394228.048589072
888.548595,398967.0089650792
882.1767113,406480.5512752904
875.9046055,417746.43456182064
869.7301242999998,434242.1597901057
863.6511742999999,456566.2425613933
857.6657193,484455.05304502614
851.7717787,521013.91361621924
845.9674256000001,567184.4528988337
840.2507849,624302.3412162423
834.6200316000001,693657.6815720896
829.0733892000001,777900.0530108126
823.6091279,874753.5149003235
818.2255633999999,983131.0924709528
812.9210552000001,1099280.9812605816
807.694005,1221610.7941686772
802.5428559,1347309.6692207886
797.4660904,1466386.2087356404
792.4622299,1590671.0887369844
787.5298327,1715107.257622698
782.6674933999999,1847906.874698497
777.8738417999999,2009129.0804728554
773.1475413,2214219.926964569
768.4872882999999,2465717.610809426
763.8918112000001,2772400.490252524
759.3598692,3123333.601453061
754.8902515999999,3520930.486114904
750.4817767999999,3937454.870007465
746.1332914,4367171.745323627
741.8436694000001,4776803.209927749
737.6118116,5135633.533047105
733.4366444,5426188.741914111
729.3171195,5650521.6973163225
725.2522127999999,5825934.033882598
721.2409241,5937982.5740770865
717.282276,6000500.464449228
713.3753136,6034814.636361557
709.5191037000001,6041061.971663527
705.7127343,6040682.016193613
701.9553139,6042720.668245554
698.2459709,6038980.8443790665
694.5838534,6038820.675654294
690.9681281000001,6041093.551518714
687.3979803,6042373.2355231885
683.8726131,6038362.969294618
680.3912472999999,6042724.149694008
676.9531202000001,6044449.957038658
673.557486,6042270.359953842
670.2036149,6039793.023048857
666.8907926,6038205.015618188
663.6183202999999,6042623.407536058
660.3855139,6041051.935595542
657.1917038,6038533.136346259
654.0362346,6040820.04109283
650.9184646000001,6039169.508975947
647.8377654,6039130.895806473
644.7935217999999,6043314.8439491615
641.7851312999999,6040397.253466888
638.8120038,6042674.219777453
635.8735614,6040619.700658407
632.9692378999999,6041755.028169938
630.0984786,6040407.568366477
627.2607402000001,6042588.483528172
624.4554901,6041923.19506319
621.6822068,6042028.0843830425
618.940379,6041790.8273492325
616.2295054,6041278.736381199
613.549095,6041598.8876246875
610.8986664,6041613.587712164
608.2777476,6041093.660542434
605.6858758999999,6041461.4258224685
603.1225977000001,6041464.470818898
600.5874682,6041119.385772145
598.0800512,6041846.895136774
595.5999188999999,6041076.488658188
593.1466518,6041201.1821
590.7198384999999,6041794.496954005
588.3190752,6041351.109281995
585.943966,6041467.114094951
583.5941226,6041199.021129936
581.2691637,6041407.958314175
578.9687155,6040814.589308713
576.692411,6041036.595345934
574.4398902,6041170.112885804
572.2107997,6041538.782545771
570.0047927,6041860.642240862
567.8215287,6041560.820864969
565.6606737000001,6041451.186962343
563.5218996,6041352.0961395
561.4048845,6041363.790101662
559.3093121,6041463.700027424
557.2348721,6041102.70164609
555.1812597,6041515.705204733
553.1481756000001,6041092.1039930135
551.1353259,6041465.9985085735
549.1424218999999,6041554.679127344
547.1691801,6041448.612128247
545.2153222000001,6040938.2444327185
543.2805745000001,6041556.236221359
541.3646685,6041225.81676383
539.46734,6041836.8162793685
537.5883299,6041536.151271064
535.7273833,6041263.617831044
533.8842498,6041257.573953102
532.0586836,6041576.466908856
530.2504428000001,6041595.4107839875
528.45929,6041548.598310455
526.6849915,6041853.916420305
524.927318,6041361.044353495
523.186044,6041873.644213162
521.4609475999999,6041331.142882106
519.7518110000001,6041436.177540382
518.0584200000001,6041275.222903402
516.3805639,6041444.646000832
514.7180356,6041284.490396367
513.0706316000001,6041107.193234625
511.43815149999995,6041443.100318458
509.82039860000003,6041408.73528961
508.2171791999999,6041526.1115528
506.628303,6041208.399135014
505.05358269999994,6041543.817474427
503.4928341,6041537.4384667985
501.9458762,6041369.605483757
500.41253059999997,6042147.662838121
498.8926222,6041447.856728473
497.3859785,6041594.712711731
495.89242989999997,6041851.588633525
494.4118094,6041161.1212776415
492.943953,6041398.085732915
491.488699,6041579.594733514
490.04588839999997,6041874.693297433
488.6153648,6041411.835632151
487.19697429999997,6041363.755457159
485.7905654,6041387.733838857
484.39598889999996,6041094.672912785
483.01309800000007,6041422.976251697
481.64174840000004,6041208.736382369
480.28179789999996,6041266.319930272
478.93310639999993,6041948.153051026
477.59553619999997,6041339.592100125
476.2689517,6041336.276924739
474.9532192,6042054.635178967
473.6482074,6041077.20579346
472.35378679999997,6041335.786456732
471.06982989999995,6041309.119660096
469.79621110000005,6041269.352966473
468.53280700000005,6041697.9306539325
467.2794956999999,6041795.719456527
466.0361575,6041078.952080471
464.80267410000005,6041366.118498132
463.5789295,6041064.304820801
462.364809,6041511.373885556
461.1601998,6041766.353958023
459.9649909,6041318.4690751
458.7790727,6041367.136455535
457.6023374,6041219.9545867825
456.4346788,6041245.2603963725
455.2759921,6041253.821712392
454.12617439999997,6041215.917419503
452.9851239,6041346.515065655
451.85274060000006,6041745.937374591
450.7289258,6041363.569150762
449.6135822,6041334.9681371385
448.5066141,6041332.800134407
447.407927,6041373.5733065475
446.317428,6041808.060771024
445.23502520000005,6041473.441228302
444.1606283,6041732.659083745
443.0941482,6041790.888380408
442.03549699999996,6041479.504778245
440.9845882,6040843.220100034
439.9413364,6041385.863312536
438.9056575,6041139.780907524
437.87746860000004,6041505.082545023
436.85668780000003,6041585.850741235
435.8432345,6041043.080183955
434.83702930000004,6041051.360042574
433.83799369999997,6041605.693098855
432.84605039999997,6041640.09016302
431.8611232,6040666.416829239
430.8831369,6034801.380749811
429.9120175,6018793.144919281
428.94769169999995,5989120.821065776
427.9900874,5940832.757370422
427.03913370000004,5870135.52807969
426.0947602,5772528.825356739
425.1568978,5645930.478630058
424.22547829999996,5488844.52425168
423.3004343,5309266.325857067
422.3816994,5113732.662115328
421.4692081,4913876.776428308
420.56289569999996,4717551.58249706
419.66269850000003,4535456.07451454
418.7685535,4377727.96493771
417.8803987,4252801.3237443315
416.9981727,4168349.0752521455
416.12181519999996,4125507.5698650093
415.25126639999996,4122968.415223581
414.38646760000006,4157941.921662109
413.5273605,4224826.912524854
412.673888,4315015.8118952885
411.8259934,4419202.186729844
410.9836208,4526671.368513066
410.14671519999996,4626207.18988968
409.3152221,4709241.3739729095
408.48908789999996,4765793.130155568
407.66825960000006,4790132.886621512
406.8526847,4778874.15232947
406.0423117,4729904.346760067
405.2370896,4645936.509170897
404.43696800000004,4529371.503164033
403.64189730000004,4385218.59040911
402.8518283,4219839.565813797
402.0667126,4040076.662297868
401.28650239999996,3852527.0346057117
400.5111505,3661593.8239360317
399.7406101,3471420.67065291
398.9748353,3285569.481577828
398.2137806,3106146.869324806
397.457401,2934693.507900631
396.7056521,2772227.8871170487
395.9584903,2618204.7894099928
395.2158722,2471926.3213182744
394.4777551,2332831.766996258
393.7440968,2203320.565932132
393.0148555,2081962.78903749
392.2899901,1967568.0129490881
391.56946,1860164.9998382526
390.853225,1759107.995813789
390.1412452,1664667.5808350474
389.43348169999996,1577147.1493940246
388.7298955,1497170.8559825488
388.03044839999995,1423947.1457332713
387.3351027,1358947.4940940968
386.6438209,1303515.52957444
385.95656610000003,1258117.8956058929
385.2733019,1222809.8484203015
384.5939922,1197908.2492139512
383.9186014,1182431.0834384104
383.2470943,1174985.1476987659
382.5794362,1174332.2622308815
381.9155926,1178834.0431940495
381.2555296,1186430.8568751195
380.59921360000004,1195649.9509020357
379.9466115,1205045.3962123524
379.29769039999996,1213949.1489737662
378.652418,1221399.7862785782
378.0107622,1227081.6276380492
377.37269130000004,1231134.6493311157
376.73817410000004,1233195.8324694843
376.1071796,1233723.1308176443
375.47967719999997,1232576.914358643
374.8556368,1230215.386442384
374.2350283,1226669.494772188
373.6178223,1221931.570544803
373.0039896,1216003.1454853946
372.3935012,1208874.7469968884
371.78632860000005,1200346.64077804
371.1824436,1190538.952515776
370.5818182,1179197.5717194718
369.98442489999996,1166089.3340443876
369.39023629999997,1151127.8067744346
368.7992255,1134116.5951376674
368.2113658,1114621.3874106936
367.6266307,1092848.889810646
367.0449943,1068468.20176517
366.4664305,1042021.0557975131
365.89091410000003,1013854.7697702077
365.3184196,984434.6378947672
364.7489221,955014.6834117824
364.18239689999996,926772.9688867584
363.61881960000005,900773.686117012
363.058166,878490.0319409096
362.50041219999997,860895.947171357
361.94553460000003,849041.7741070265
361.3935098,843212.1445364223
360.8443147,843284.3858863319
360.29792630000003,849254.5246159657
359.754322,860108.6557001581
359.2134795,874679.1706543609
358.6753765,891405.3674202395
358.1399912,908705.7620436641
357.6073018,925513.3614309431
357.077287,940134.257607586
356.5499253,951962.7988969587
356.025196,960373.3071034695
355.50307799999996,965324.7221851044
354.983551,966998.6773585698
354.4665945,966570.5806207692
353.95218839999995,964715.2471926732
353.4403127,962702.3809050452
352.9309478,961373.662743552
352.42407410000004,961574.8770336731
351.9196722,963697.6727257895
351.4177232,967501.8179041779
350.91820789999997,972393.8597352944
350.4211078,977464.494002272
349.9264043,981060.1007123974
349.434079,981930.8834196116
348.9441137,978684.9406196795
348.45649060000005,970103.14115016
347.97119169999996,955343.4025882005
347.48819960000003,934331.5876295505
347.0074967,906745.1672749991
346.5290657,873514.0444749951
346.0528897,835500.0274152182
345.5789517,793848.5433202693
345.1072349,749602.0238971759
344.6377228,704482.7874167169
344.17039889999995,659234.5164987645
343.70524710000007,615079.8672200757
343.24225110000003,572965.5998741448
342.7813952,533506.2449701864
342.32266339999995,497105.4484774471
341.8660403,464192.2401358002
341.4115102,434756.81641310424
340.959058,408813.2744534762
340.5086685,386103.81066279346
340.06032660000005,366527.06391549815
339.6140175,349560.058100602
339.1697264,334891.4560891176
338.7274388,322117.6997230223
338.28714019999995,310943.76721197966
337.8488164,300755.0553788514
337.41245310000005,291486.04675196914
336.9780363,282917.2383773175
336.5455522,274631.74762715923
336.114987,266456.97692590754
335.686327,258235.07452827587
335.2595588,249683.56963138358
334.834669,240558.99582884635
334.4116443,230731.793361525
333.9904716,220172.32558913648
333.57113799999996,208696.6333032556
333.1536305,196389.7400449882
332.73793639999997,183346.45217401642
332.32404310000004,169873.84161894338
331.91193799999996,156048.33608806116
331.5016088,142285.02082973812
331.0930432,128858.30578458623
330.6862289,115981.21786149574
330.281154,103972.3494646084
329.8778065,92846.78363958783
329.47617460000004,82850.93094839684
329.07624649999997,73928.74330404871
328.6780106,66136.76510482255
328.2814555,59312.79643363954
327.88656960000003,53505.02657820094
327.4933418,48470.476211051326
327.1017607,44228.28194189814
326.7118154,40574.87493657157
326.32349480000005,37453.518607104954
325.93678789999996,34851.401689811464
325.5516841,32537.909470802788
325.16817260000005,30592.468913772675
324.7862428,28902.845596104507
324.40588419999995,27386.56615740625
324.0270864,26094.85619009871
323.649839,24910.620038089277
323.2741319,23861.63821923086
322.8999548,22958.419649001287
322.5272977,22080.817388308253
322.1561508,21282.68290219197
321.786504,20542.97371657295
321.4183476,19837.942601693085
321.0516719,19151.150144625582
320.6864673,18495.120465255288
320.3227243,17871.68201989852
319.96043330000003,17267.224993587744
319.5995851,16678.84247950028
319.2401704,16130.052809969251
318.8821799,15610.435853590847
318.5256045,15076.783942295466
318.1704352,14562.556979229468
317.8166631,14075.633351667906
317.4642791,13560.417170703853
317.1132746,13058.400530510271
316.76364069999994,12561.667141126196
316.4153688,12064.203661770174
316.06845039999996,11549.434584980198
315.72287689999996,11045.661217053956
315.37863980000003,10556.712349590998
315.0357308,10079.55540583858
314.6941415,9597.3189168299
314.3538639,9144.369775501536
314.0148896,8707.008789429838
313.6772106,8283.995671158948
313.3408189,7915.625888895651
313.00570639999995,7547.680763910342
312.67186549999997,7206.009468280383
312.33928810000003,6899.404039450545
312.0079665,6608.099267347893
311.6778931,6306.078035671597
311.34906010000003,6039.437193518382
311.0214601,5739.271537765108
310.6950856,5439.114615733043
310.369929,5141.574697816412
310.04598300000004,4819.0665100051865
309.7232403,4497.911381943276
309.4016935,4173.9498062747725
309.0813356,3872.991287086763
308.7621594,3572.418206692511
308.4441577,3303.7294690731483
308.1273236,3056.3575356319957
307.8116501,2827.3972224346544
307.49713019999996,2275.5271002141285
307.18375710000004,1804.088384050298
306.871524,1388.8709005427766
306.5604242,1010.2841493736464
306.2504509,699.4634286755139
