wave,flux
1817.164934,-0.040385911129777415
1790.1022050000001,-1.738722283144894
1763.812741,6.88211945730567
1738.2646949999998,23.405495819531673
1713.427949,95.70762771100105
1689.273995,259.8224398326885
1665.7758310000002,569.6461939993055
1642.907862,1106.72822378374
1620.64581,1939.358930570717
1598.9666300000001,3089.0991502943293
1577.8484310000001,4622.110455690846
1557.270407,6566.704093919186
1537.212767,8960.105470123835
1517.65668,11723.268359606924
1498.5842089999999,14824.670645695307
1479.978265,18167.069377450433
1461.822555,21701.231474831533
1444.101535,25339.231014407887
1426.800368,29105.303017386144
1409.904887,32861.406292358035
1393.401553,36667.61116127843
1377.2774220000001,40387.75236663545
1361.520115,44168.26645153941
1346.117782,47979.212571257834
1331.059081,51687.19910276642
1316.3331449999998,55474.70959045278
1301.92956,59332.261071447676
1287.838342,63121.06521533957
1274.049912,67024.66986986279
1260.5550779999999,70924.02718223623
1247.345017,74783.07076500612
1234.4112519999999,78677.91735025067
1221.74564,82676.14341631597
1209.340352,86610.7690156158
1197.187859,90604.92240667822
1185.28092,94660.1771569268
1173.612564,98699.32002567493
1162.1760800000002,102761.12094124914
1150.9650060000001,106959.96555209873
1139.973115,111054.61150859047
1129.194406,115216.84544255711
1118.623093,119366.16507116961
1108.253594,123558.07565971506
1098.0805269999998,127652.55995163266
1088.098695,131902.81788215222
1078.303081,136270.72010891573
1068.688841,140458.07464733967
1059.251295,145037.90542205342
1049.9859199999999,149469.93192824663
1040.8883449999998,154259.6581031507
1031.9543429999999,159382.29026602439
1023.1798259999999,164741.83010765526
1014.5608390000001,170582.4311253068
1006.0935529999999,176667.65267735175
997.774265,183511.15254770915
989.5993858999999,190699.0519520965
981.5654412999999,198265.70454028595
973.6690651,206236.91117978762
965.9069952,214326.38709686103
958.2760697000001,223017.88255910765
950.7732231000001,231823.590570016
943.3954827,240427.08377468595
936.1399648,249327.4980601279
929.0038716,257967.90908292608
921.9844879000001,266859.99582849053
915.0791782,275668.6115907339
908.2853836000002,284227.5170206033
901.6006193,292947.62593501125
895.0224714,301734.01776667195
888.548595,310680.81690600107
882.1767113,319589.8870542498
875.9046055,329136.6933377837
869.7301242999998,339626.78134384577
863.6511742999999,351033.6899807597
857.6657193,363630.5123681399
851.7717787,376808.63258111244
845.9674256000001,392428.91425914736
840.2507849,409754.8819908624
834.6200316000001,429348.09248831857
829.0733892000001,451696.8617880278
823.6091279,476889.0482513035
818.2255633999999,505034.5025461648
812.9210552000001,536880.8977023247
807.694005,571392.2054703439
802.5428559,608666.5545865213
797.4660904,651116.7838942426
792.4622299,696269.6446964626
787.5298327,745005.4890474847
782.6674933999999,801566.9058213346
777.8738417999999,862328.2566617021
773.1475413,931022.2151585206
768.4872882999999,1013477.7901316219
763.8918112000001,1111568.245336876
759.3598692,1228019.431845562
754.8902515999999,1364918.4709262082
750.4817767999999,1528402.0164857619
746.1332914,1715193.5591985148
741.8436694000001,1925328.660268952
737.6118116,2162068.452609443
733.4366444,2417947.4593160655
729.3171195,2691260.5382822664
725.2522127999999,2978880.34531722
721.2409241,3281394.024784559
717.282276,3594696.412188548
713.3753136,3914037.844746805
709.5191037000001,4229190.936211714
705.7127343,4533095.594531492
701.9553139,4826733.6592923775
698.2459709,5097837.8552538715
694.5838534,5343182.074276292
690.9681281000001,5548646.69262033
687.3979803,5709033.853945851
683.8726131,5832034.368624982
680.3912472999999,5922243.931797182
676.9531202000001,5982015.554536773
673.557486,6020541.369851155
670.2036149,6036531.496747676
666.8907926,6041654.429176721
663.6183202999999,6040709.904540063
660.3855139,6041156.144475441
657.1917038,6038338.760687538
654.0362346,6042915.012394602
650.9184646000001,6042067.946257375
647.8377654,6043502.305824539
644.7935217999999,6040673.744765874
641.7851312999999,6042401.985505418
638.8120038,6042522.046262726
635.8735614,6042255.137619423
632.9692378999999,6041776.314455464
630.0984786,6041617.6487810165
627.2607402000001,6041667.380769515
624.4554901,6041448.307504049
621.6822068,6040504.659321821
618.940379,6041686.433558901
616.2295054,6041096.899385854
613.549095,6041535.627426996
610.8986664,6041358.8929403
608.2777476,6041140.605558266
605.6858758999999,6041117.263494383
603.1225977000001,6041351.999824853
600.5874682,6041612.31305726
598.0800512,6041259.000179888
595.5999188999999,6041435.065748707
593.1466518,6041599.729429569
590.7198384999999,6041335.760427255
588.3190752,6040618.8869792735
585.943966,6041288.902342873
583.5941226,6041370.125351174
581.2691637,6041453.6746786535
578.9687155,6041474.808508349
576.692411,6041516.233659052
574.4398902,6041410.826687347
572.2107997,6041177.127874304
570.0047927,6041470.204104813
567.8215287,6041601.0452898415
565.6606737000001,6041305.022568914
563.5218996,6041117.551188699
561.4048845,6041639.749914512
559.3093121,6041117.004452755
557.2348721,6041795.7341763005
555.1812597,6041969.410755396
553.1481756000001,6041475.0479587335
551.1353259,6041356.778721681
549.1424218999999,6041568.876299595
547.1691801,6041282.915897433
545.2153222000001,6041228.8987078015
543.2805745000001,6041391.763691982
541.3646685,6041650.067659241
539.46734,6041717.178844996
537.5883299,6041556.584654353
535.7273833,6041182.379912256
533.8842498,6041292.947059964
532.0586836,6041447.060770941
530.2504428000001,6041221.387876371
528.45929,6041925.379208732
526.6849915,6040883.771290634
524.927318,6040841.305883554
523.186044,6041013.953347713
521.4609475999999,6041775.966230702
519.7518110000001,6041397.99565551
518.0584200000001,6041336.118580148
516.3805639,6041499.0026897825
514.7180356,6041530.712125898
513.0706316000001,6041335.378817338
511.43815149999995,6041486.075250522
509.82039860000003,6041797.423205912
508.2171791999999,6041138.852277353
506.628303,6041435.914615535
505.05358269999994,6041277.830063166
503.4928341,6041262.188458694
501.9458762,6041546.605011563
500.41253059999997,6041253.79378345
498.8926222,6041295.398924627
497.3859785,6041671.819105884
495.89242989999997,6041166.061706626
494.4118094,6041719.844129727
492.943953,6041575.401221993
491.488699,6041624.621458332
490.04588839999997,6041778.719188514
488.6153648,6041587.033731572
487.19697429999997,6041221.965788867
485.7905654,6041691.682165182
484.39598889999996,6041317.7700174125
483.01309800000007,6041426.898404599
481.64174840000004,6041648.170102785
480.28179789999996,6041688.1872551525
478.93310639999993,6041911.627568646
477.59553619999997,6041513.746882655
476.2689517,6041157.744710326
474.9532192,6041719.255484576
473.6482074,6040908.608836438
472.35378679999997,6041687.406663062
471.06982989999995,6041404.254984109
469.79621110000005,6041375.947997852
468.53280700000005,6041511.576384272
467.2794956999999,6041279.478369669
466.0361575,6039013.947663036
464.80267410000005,6031730.696267586
463.5789295,6016731.41727771
462.364809,5991527.913186072
461.1601998,5953278.311962939
459.9649909,5899577.699215228
458.7790727,5826877.978044046
457.6023374,5734236.175340546
456.4346788,5622009.255176209
455.2759921,5493319.139087019
454.12617439999997,5350865.289053065
452.9851239,5196223.314814211
451.85274060000006,5033192.54226772
450.7289258,4863438.926498764
449.6135822,4690244.564153104
448.5066141,4516669.214499914
447.407927,4343415.3872367265
446.317428,4171204.7873968096
445.23502520000005,4000900.891465645
444.1606283,3834416.862870418
443.0941482,3671931.044284778
442.03549699999996,3514252.969139045
440.9845882,3362380.529913796
439.9413364,3216638.529896615
438.9056575,3076827.745951361
437.87746860000004,2942944.4016698343
436.85668780000003,2814629.2671765755
435.8432345,2691455.442969046
434.83702930000004,2572963.774310878
433.83799369999997,2458628.232176476
432.84605039999997,2348403.4433100168
431.8611232,2241901.61599369
430.8831369,2139229.965265836
429.9120175,2040886.9376579789
428.94769169999995,1946361.1349079628
427.9900874,1856366.6997874586
427.03913370000004,1770016.6137906213
426.0947602,1688375.728396265
425.1568978,1610144.5778248827
424.22547829999996,1535629.2168332625
423.3004343,1464282.0819694775
422.3816994,1395945.309874211
421.4692081,1330523.320292464
420.56289569999996,1267382.6282906255
419.66269850000003,1206976.6375181295
418.7685535,1148796.8479334237
417.8803987,1092953.45160584
416.9981727,1039289.0104820776
416.12181519999996,987785.3093825093
415.25126639999996,938220.2922105078
414.38646760000006,890397.6269660605
413.5273605,844189.3314125374
412.673888,799435.7970640501
411.8259934,756047.0141409364
410.9836208,714024.946312511
410.14671519999996,673269.1552683527
409.3152221,633915.3573013961
408.48908789999996,595916.201349548
407.66825960000006,559442.5821939805
406.8526847,524606.8187523026
406.0423117,491328.1225436282
405.2370896,459876.4131070325
404.43696800000004,430106.36709931656
403.64189730000004,402031.26771258994
402.8518283,375683.26011326397
402.0667126,350940.3778497177
401.28650239999996,327856.88784752646
400.5111505,306228.0505225779
399.7406101,285994.9355855163
398.9748353,267086.12498923857
398.2137806,249527.8250077337
397.457401,233164.63886920465
396.7056521,217924.690236888
395.9584903,203826.89351456566
395.2158722,190678.03101070286
394.4777551,178546.77630874774
393.7440968,167260.27398367293
393.0148555,156865.00201419913
392.2899901,147280.1577920597
391.56946,138405.55715721255
390.853225,130171.30837661828
390.1412452,122575.67633910324
389.43348169999996,115502.31238906947
388.7298955,108913.82387905133
388.03044839999995,102739.88851038873
387.3351027,96908.20294286922
386.6438209,91419.93908138608
385.95656610000003,86224.27671620644
385.2733019,81337.22753838556
384.5939922,76724.88084948482
383.9186014,72363.80308699397
383.2470943,68287.38363917207
382.5794362,64425.95067699767
381.9155926,60826.81091729148
381.2555296,57416.6050289637
380.59921360000004,54196.373810447454
379.9466115,51195.271014717364
379.29769039999996,48340.255754705606
378.652418,45645.86075444964
378.0107622,43087.36863148084
377.37269130000004,40703.37084472114
376.73817410000004,38420.47498291726
376.1071796,36260.10833559585
375.47967719999997,34219.44524125081
374.8556368,32275.29931546063
374.2350283,30449.156450272832
373.6178223,28692.78722399792
373.0039896,27032.853290671464
372.3935012,25450.559652557746
371.78632860000005,23930.817157502035
371.1824436,22483.670128458893
370.5818182,21111.90667110841
369.98442489999996,19800.840127323714
369.39023629999997,18565.72747762825
368.7992255,17397.538526089444
368.2113658,16290.073853066373
367.6266307,15257.009550942661
367.0449943,14282.162687274322
366.4664305,13366.713413119242
365.89091410000003,12524.06061489544
365.3184196,11731.43237683058
364.7489221,10990.103507155016
364.18239689999996,10292.523117268913
363.61881960000005,9634.815229924512
363.058166,9005.920539077068
362.50041219999997,8426.148503110451
361.94553460000003,7873.114706701524
361.3935098,7348.552101898918
360.8443147,6864.987052991634
360.29792630000003,6401.486578476298
359.754322,5980.588682652289
359.2134795,5577.828301161382
358.6753765,5203.973095999612
358.1399912,4855.597262874315
357.6073018,4519.054823019461
357.077287,4205.690865001454
356.5499253,3913.207429633542
356.025196,3631.39839172849
355.50307799999996,3370.0599833839005
354.983551,3113.2530094210874
354.4665945,2874.385650078998
353.95218839999995,2655.308081642245
353.4403127,2448.90464562474
352.9309478,2252.737849247891
352.42407410000004,2070.6854611896815
351.9196722,1901.9186609426145
351.4177232,1753.2308467771006
350.91820789999997,1607.852016634742
350.4211078,1468.28203527847
349.9264043,1343.4621217547956
349.434079,1221.8604619272771
348.9441137,1102.1314147083983
348.45649060000005,993.2367662216104
347.97119169999996,894.1457983367227
347.48819960000003,797.3492012931438
347.0074967,711.2574951717073
346.5290657,632.3042915442924
346.0528897,560.9625953732333
345.5789517,500.06968571295
345.1072349,435.17008481514364
344.6377228,393.3466444768962
344.17039889999995,345.6276152249698
343.70524710000007,301.44754248004364
343.24225110000003,267.89026399199537
342.7813952,238.0699197775178
342.32266339999995,206.51545339673785
341.8660403,181.5855539212934
341.4115102,162.5347551117355
340.959058,141.1327758238336
340.5086685,123.99156373049807
340.06032660000005,110.9438643642362
339.6140175,101.2423392992917
339.1697264,86.80671181068199
338.7274388,76.92876471169602
338.28714019999995,62.82917815150144
337.8488164,53.77230607316906
337.41245310000005,51.65084941728539
336.9780363,45.13669795545447
336.5455522,46.79169173879124
336.114987,36.18752446448667
335.686327,26.472697366639682
335.2595588,26.377139739607305
334.834669,21.573032245462613
334.4116443,18.357450987716803
333.9904716,17.10940269035963
333.57113799999996,12.832046780175896
333.1536305,11.085312715210605
332.73793639999997,10.218186119159522
332.32404310000004,11.01664702753685
331.91193799999996,8.409741597269674
331.5016088,3.0367248653445698
331.0930432,3.2041456503005548
330.6862289,4.018541417742384
330.281154,0.010390176670393549
329.8778065,1.9962002517732136
329.47617460000004,5.864357271724671
329.07624649999997,1.0809767067720562
328.6780106,-2.018923412445234
328.2814555,-4.172232685579131
327.88656960000003,1.5317107986594412
327.4933418,-2.368300174018669
327.1017607,5.467055281278583
326.7118154,2.129706850012443
326.32349480000005,-0.7182715364441545
325.93678789999996,-1.984817725678447
325.5516841,2.4379727560051623
325.16817260000005,-0.7654799318171824
324.7862428,-0.596628933013182
324.40588419999995,-0.3772701007357701
324.0270864,-3.7105984103478056
323.649839,3.1756095280950363
323.2741319,-0.3532321672351533
322.8999548,1.7576703607424944
322.5272977,-0.4822849117051848
322.1561508,0.174339380055018
321.786504,4.1529908714929435
321.4183476,1.0997447859495446
321.0516719,-0.9564641704223544
320.6864673,0.2362451631396214
320.3227243,-1.7049694418080543
319.96043330000003,-0.2045375130303108
319.5995851,1.423995959297441
319.2401704,1.7152496266247197
318.8821799,-0.4596674684722917
318.5256045,-1.5047194322359176
318.1704352,1.7789278951819352
317.8166631,-3.6869734398181593
317.4642791,-0.4253037604442053
317.1132746,4.773341397356432
316.76364069999994,1.790486843602461
316.4153688,0.8578204861681855
316.06845039999996,0.4899213096738528
315.72287689999996,1.6272828694654096
315.37863980000003,-5.353689309126457
315.0357308,0.933638207657536
314.6941415,5.790982093157848
314.3538639,-1.2767904489238386
314.0148896,-1.159313772766147
313.6772106,-0.2399318689983215
313.3408189,1.8017166392454007
313.00570639999995,-1.980568457215372
312.67186549999997,-0.09972970605030712
312.33928810000003,2.4738310987995247
312.0079665,2.5038197500818944
311.6778931,-1.378561312158826
311.34906010000003,4.477899416459663
311.0214601,2.374824217757583
310.6950856,3.244319795341147
310.369929,-1.8545390956702368
310.04598300000004,0.4396654914335712
309.7232403,-4.692197353372283
309.4016935,0.10687482825945166
309.0813356,-0.7394227516868943
308.7621594,-0.3601436656523813
308.4441577,-1.2727312950013911
308.1273236,-3.901445835469512
307.8116501,2.9301131248727517
307.49713019999996,-0.03209195675331066
307.18375710000004,0.7357167379978901
306.871524,-0.2447964241166469
306.5604242,-2.1528726029089578
306.2504509,1.957694981976392
