wave,flux
1817.164934,13.36019492060602
1790.1022050000001,-14.663617174181294
1763.812741,9.70620256486382
1738.2646949999998,12.211755441227613
1713.427949,95.22349087805628
1689.273995,1129.817288139262
1665.7758310000002,3844.890169248146
1642.907862,8318.286689873654
1620.64581,14462.6054538826
1598.9666300000001,22332.946187540547
1577.8484310000001,31961.84809085313
1557.270407,43283.29850860891
1537.212767,56480.479300622814
1517.65668,69492.58258315187
1498.5842089999999,81557.10699976578
1479.978265,92314.30209313957
1461.822555,101941.68574430767
1444.101535,110292.57756327158
1426.800368,117334.34521444044
1409.904887,123103.67284192401
1393.401553,127466.64921902792
1377.2774220000001,131395.05150952446
1361.520115,135174.05486368595
1346.117782,138959.3176990189
1331.059081,142679.64934912667
1316.3331449999998,146507.09523103718
1301.92956,150057.9251592233
1287.838342,153675.58607390177
1274.049912,157332.07075082106
1260.5550779999999,161202.35424933804
1247.345017,165044.72075521346
1234.4112519999999,168740.56403633932
1221.74564,172675.65575928212
1209.340352,176466.89259629554
1197.187859,180325.4011058274
1185.28092,184424.14958394849
1173.612564,188582.7878697821
1162.1760800000002,192550.51147829148
1150.9650060000001,196815.07289735464
1139.973115,200785.9219658166
1129.194406,205056.7861854112
1118.623093,209200.55058445688
1108.253594,213231.93592011023
1098.0805269999998,217692.26067081792
1088.098695,221876.82916272208
1078.303081,226218.3928474649
1068.688841,231204.4120263458
1059.251295,236765.5528262441
1049.9859199999999,243365.51789313578
1040.8883449999998,251217.6506601649
1031.9543429999999,260855.9101019872
1023.1798259999999,272605.4366541572
1014.5608390000001,286198.4196290404
1006.0935529999999,301821.7541122023
997.774265,319074.3221617601
989.5993858999999,337080.9059461128
981.5654412999999,356265.48979328584
973.6690651,375361.4952252999
965.9069952,394304.6381385876
958.2760697000001,411388.12077485526
950.7732231000001,427530.98145960725
943.3954827,441068.44130084384
936.1399648,453264.3381664515
929.0038716,462571.99338779453
921.9844879000001,470610.82954705006
915.0791782,476268.3548080399
908.2853836000002,481499.8252491922
901.6006193,485952.50615948346
895.0224714,491460.6517662317
888.548595,499227.843954802
882.1767113,510207.8381479441
875.9046055,525086.5179823459
869.7301242999998,543431.7933481882
863.6511742999999,569187.0920427704
857.6657193,600127.838997288
851.7717787,641513.5188645091
845.9674256000001,691401.3705857589
840.2507849,754145.589181039
834.6200316000001,830117.2507356538
829.0733892000001,919874.9790147587
823.6091279,1021420.2570092713
818.2255633999999,1137912.6213262037
812.9210552000001,1263770.7640927944
807.694005,1393089.2988853273
802.5428559,1528896.6031821072
797.4660904,1663868.7731306262
792.4622299,1798898.2139615617
787.5298327,1940589.706512321
782.6674933999999,2097015.868926068
777.8738417999999,2283129.636750711
773.1475413,2512224.3526764587
768.4872882999999,2788776.220725569
763.8918112000001,3108516.8241374907
759.3598692,3465123.0035079382
754.8902515999999,3854353.6764437496
750.4817767999999,4260922.5378797455
746.1332914,4660630.7171720015
741.8436694000001,5027782.887628681
737.6118116,5334285.407874019
733.4366444,5581054.175618445
729.3171195,5767276.609500181
725.2522127999999,5896696.508419292
721.2409241,5982117.549361769
717.282276,6024952.245576112
713.3753136,6040926.892312507
709.5191037000001,6042286.995797565
705.7127343,6042734.441831619
701.9553139,6040975.843639236
698.2459709,6042616.5170183685
694.5838534,6040570.931285101
690.9681281000001,6042319.33578338
687.3979803,6040800.379397589
683.8726131,6042096.612193103
680.3912472999999,6043209.389561272
676.9531202000001,6039655.741169548
673.557486,6042910.809605184
670.2036149,6042642.758647517
666.8907926,6041343.172436068
663.6183202999999,6040013.754317561
660.3855139,6041009.472196087
657.1917038,6039347.2067221785
654.0362346,6039990.977626309
650.9184646000001,6040745.095417897
647.8377654,6039488.183535643
644.7935217999999,6041665.835210943
641.7851312999999,6042482.2887650775
638.8120038,6042732.617034191
635.8735614,6040962.124456718
632.9692378999999,6039739.531213655
630.0984786,6042833.877560773
627.2607402000001,6040233.689205453
624.4554901,6042141.9941623835
621.6822068,6042269.044825577
618.940379,6041713.668504029
616.2295054,6041596.625114656
613.549095,6040972.555898268
610.8986664,6041323.554734025
608.2777476,6041417.482349441
605.6858758999999,6041157.828910184
603.1225977000001,6041470.052932013
600.5874682,6041581.11133949
598.0800512,6041306.753204731
595.5999188999999,6041414.982466807
593.1466518,6041156.69799331
590.7198384999999,6041097.941882939
588.3190752,6041743.5085463915
585.943966,6041536.00036481
583.5941226,6041447.585949179
581.2691637,6041437.86530437
578.9687155,6041314.4411149975
576.692411,6041342.560148522
574.4398902,6041281.132753985
572.2107997,6041204.995298055
570.0047927,6041604.3899559425
567.8215287,6041348.533026462
565.6606737000001,6041691.270365714
563.5218996,6041607.847001884
561.4048845,6041547.667361408
559.3093121,6041327.980403335
557.2348721,6041360.234866174
555.1812597,6041595.244124187
553.1481756000001,6041422.288935121
551.1353259,6041543.217949534
549.1424218999999,6041573.590813497
547.1691801,6041353.351610118
545.2153222000001,6041152.357023006
543.2805745000001,6041287.986500967
541.3646685,6041119.549018213
539.46734,6041394.774412476
537.5883299,6041119.389560938
535.7273833,6041627.021113609
533.8842498,6041399.675770247
532.0586836,6041023.503624692
530.2504428000001,6041231.729330936
528.45929,6041220.50710693
526.6849915,6041711.871568028
524.927318,6041289.223571237
523.186044,6041421.8131710775
521.4609475999999,6041383.333400519
519.7518110000001,6041472.019674217
518.0584200000001,6041695.570584745
516.3805639,6041214.561529192
514.7180356,6041522.124717273
513.0706316000001,6041769.736875262
511.43815149999995,6041622.5437725065
509.82039860000003,6041365.776626789
508.2171791999999,6041279.51892941
506.628303,6041499.441667528
505.05358269999994,6041580.173992355
503.4928341,6041260.95597597
501.9458762,6041750.777591187
500.41253059999997,6041645.602786941
498.8926222,6041569.290104956
497.3859785,6041108.217304222
495.89242989999997,6041345.107783905
494.4118094,6041382.193409047
492.943953,6041854.304675003
491.488699,6041530.084866918
490.04588839999997,6041621.182729259
488.6153648,6041557.697401293
487.19697429999997,6041619.422767124
485.7905654,6041407.100073363
484.39598889999996,6041435.95858024
483.01309800000007,6040908.940231362
481.64174840000004,6041424.630592069
480.28179789999996,6041154.6088481
478.93310639999993,6041637.0243913485
477.59553619999997,6041381.096557332
476.2689517,6041111.933634957
474.9532192,6041487.924008638
473.6482074,6041033.257163385
472.35378679999997,6041697.306926701
471.06982989999995,6041333.8974275375
469.79621110000005,6040957.096462219
468.53280700000005,6041314.176051376
467.2794956999999,6041024.200978871
466.0361575,6041164.594701878
464.80267410000005,6038475.375381542
463.5789295,6030326.375419487
462.364809,6015082.113559953
461.1601998,5989486.218574762
459.9649909,5952682.81310705
458.7790727,5903087.588109868
457.6023374,5838098.816551077
456.4346788,5757800.383464905
455.2759921,5665275.617444687
454.12617439999997,5564790.692310757
452.9851239,5459239.058566503
451.85274060000006,5352735.662906205
450.7289258,5247579.309136056
449.6135822,5148171.3865459375
448.5066141,5056126.147036764
447.407927,4976194.917649363
446.317428,4907419.798377519
445.23502520000005,4851652.7868608665
444.1606283,4810085.730219359
443.0941482,4782499.032252528
442.03549699999996,4769684.408300807
440.9845882,4770193.812328557
439.9413364,4780573.79777612
438.9056575,4796826.627324642
437.87746860000004,4814081.4315650435
436.85668780000003,4825998.010119041
435.8432345,4825920.850361417
434.83702930000004,4807900.463981593
433.83799369999997,4768904.840965119
432.84605039999997,4705090.857857406
431.8611232,4617437.905527978
430.8831369,4508394.260307829
429.9120175,4380868.622594606
428.94769169999995,4241895.244614554
427.9900874,4096921.523039255
427.03913370000004,3952904.917168839
426.0947602,3817104.2737299684
425.1568978,3694389.225404485
424.22547829999996,3589882.8688605037
423.3004343,3506753.3445190717
422.3816994,3446694.6781089413
421.4692081,3409189.7298976565
420.56289569999996,3392090.0621362138
419.66269850000003,3393020.985914237
418.7685535,3406715.7690002024
417.8803987,3427416.1534178755
416.9981727,3449911.4667022107
416.12181519999996,3468841.0557932323
415.25126639999996,3478579.176497356
414.38646760000006,3476640.5407561194
413.5273605,3461201.0749206943
412.673888,3430863.8855194137
411.8259934,3387552.717888595
410.9836208,3332919.308682891
410.14671519999996,3269592.50470722
409.3152221,3200130.3407776775
408.48908789999996,3127727.321798577
407.66825960000006,3053996.128478332
406.8526847,2980038.656738188
406.0423117,2907921.8585359375
405.2370896,2836891.04582288
404.43696800000004,2767198.7710972205
403.64189730000004,2698916.547801352
402.8518283,2631243.8666409957
402.0667126,2564230.316009476
401.28650239999996,2497413.8697774033
400.5111505,2430869.2541113053
399.7406101,2363629.4305748157
398.9748353,2295048.4871125603
398.2137806,2226528.527663317
397.457401,2158009.115954618
396.7056521,2089945.3673555343
395.9584903,2023424.7577129968
395.2158722,1959096.976690779
394.4777551,1896908.0377759482
393.7440968,1840040.0667678837
393.0148555,1787692.5746443463
392.2899901,1738562.0131468824
391.56946,1692186.8654522612
390.853225,1646402.3044373726
390.1412452,1599296.032060427
389.43348169999996,1549565.1165238598
388.7298955,1494957.7180479318
388.03044839999995,1433387.7171774718
387.3351027,1364607.1399056194
386.6438209,1289328.8157252304
385.95656610000003,1208276.8320823677
385.2733019,1122451.27102761
384.5939922,1034073.3643635126
383.9186014,945108.2779135634
383.2470943,857208.9239342145
382.5794362,772276.0044854723
381.9155926,691851.108221562
381.2555296,616610.6373529542
380.59921360000004,547357.6509454229
379.9466115,484488.4126725274
379.29769039999996,428073.9108055112
378.652418,378170.00133367657
378.0107622,334218.1199478717
377.37269130000004,295874.4337628344
376.73817410000004,262804.7605140804
376.1071796,234433.82138016896
375.47967719999997,210190.6868334168
374.8556368,189552.92902403953
374.2350283,172017.96983827322
373.6178223,157143.81116339494
373.0039896,144596.69026430525
372.3935012,133977.6575628545
371.78632860000005,124874.41028386574
371.1824436,117093.5453274903
370.5818182,110270.62085297047
369.98442489999996,104468.79022024835
369.39023629999997,99318.00498569821
368.7992255,94782.66163198256
368.2113658,90712.71524969493
367.6266307,87040.16571538232
367.0449943,83742.43799214173
366.4664305,80733.6863591148
365.89091410000003,77956.94004704153
365.3184196,75354.47864570591
364.7489221,72874.71523884055
364.18239689999996,70507.71162111356
363.61881960000005,68185.59680558155
363.058166,65910.07814709988
362.50041219999997,63605.40202139993
361.94553460000003,61324.76450576706
361.3935098,59044.06147371661
360.8443147,56765.01852360423
360.29792630000003,54517.354735908826
359.754322,52339.51005069966
359.2134795,50239.201721689766
358.6753765,48190.323640286435
358.1399912,46230.150715271535
357.6073018,44328.129274216764
357.077287,42515.7568004924
356.5499253,40738.90347264127
356.025196,39031.41256280818
355.50307799999996,37372.27359567015
354.983551,35750.528607281754
354.4665945,34192.064403547214
353.95218839999995,32666.78277078159
353.4403127,31189.420150319736
352.9309478,29784.486537786113
352.42407410000004,28384.022502467888
351.9196722,27045.962341820185
351.4177232,25749.273156946347
350.91820789999997,24489.97780810433
350.4211078,23278.745023394193
349.9264043,22123.014109150987
349.434079,20984.715599441803
348.9441137,19920.83943315566
348.45649060000005,18916.67234870469
347.97119169999996,17962.555919988794
347.48819960000003,17047.139311636594
347.0074967,16165.571380142073
346.5290657,15331.770498703858
346.0528897,14517.190838110237
345.5789517,13735.274963313044
345.1072349,12988.768426873345
344.6377228,12274.711070709722
344.17039889999995,11585.271126746598
343.70524710000007,10925.764680096128
343.24225110000003,10315.9056838796
342.7813952,9710.73426934782
342.32266339999995,9136.443274742354
341.8660403,8582.946595127796
341.4115102,8065.9984613620445
340.959058,7559.729924857624
340.5086685,7072.772423976972
340.06032660000005,6621.653237721392
339.6140175,6186.170946084507
339.1697264,5789.2130092454845
338.7274388,5417.518463001501
338.28714019999995,5060.93834482605
337.8488164,4714.3082949519485
337.41245310000005,4372.061769343793
336.9780363,4026.950193008592
336.5455522,3684.8009353310717
336.114987,3334.000496320144
335.686327,2981.5133863723468
335.2595588,2628.6802806136693
334.834669,2274.603423368971
334.4116443,1955.6183131702533
333.9904716,1641.9286220695444
333.57113799999996,1357.0712169533845
333.1536305,1112.4358723191692
332.73793639999997,892.3178502407071
332.32404310000004,716.2073450349867
331.91193799999996,560.1140788775862
331.5016088,437.4803904029979
331.0930432,339.45785090295516
330.6862289,264.52852050939833
330.281154,197.21039474769935
329.8778065,147.76737025879953
329.47617460000004,102.29793385784922
329.07624649999997,73.60135305225047
328.6780106,46.79463261098262
328.2814555,28.0358990229485
327.88656960000003,17.077716380611676
327.4933418,9.520058179069707
327.1017607,4.34163711435574
326.7118154,0.8651866685542932
326.32349480000005,-3.3107761505702995
325.93678789999996,-1.3662169456257425
325.5516841,1.1754475279653718
325.16817260000005,-2.534942333784516
324.7862428,-3.538496100018837
324.40588419999995,-0.2880431444835254
324.0270864,1.9805318227498463
323.649839,0.4604421812930132
323.2741319,0.3034517316123765
322.8999548,0.18345452861991896
322.5272977,-2.3004124914178914
322.1561508,0.0914251796176318
321.786504,3.0264802103386024
321.4183476,2.7499875968857976
321.0516719,1.8233737667172143
320.6864673,-0.8500425324610291
320.3227243,-0.5026625179967392
319.96043330000003,2.1872608241035274
319.5995851,2.0192484838567824
319.2401704,-1.5646696288397015
318.8821799,-2.491007978738419
318.5256045,-0.949762729541928
318.1704352,1.8606529078694443
317.8166631,3.2968030253835585
317.4642791,6.807837575510862
317.1132746,3.2178455960368058
316.76364069999994,-2.3444932566990744
316.4153688,-3.736178419027482
316.06845039999996,2.3864893958695355
315.72287689999996,0.8578752427049676
315.37863980000003,-5.2453665331649075
315.0357308,2.7032789672051742
314.6941415,0.9927328279878892
314.3538639,-0.6481111429968583
314.0148896,0.2413083991431357
313.6772106,1.243141367058182
313.3408189,-0.6558122027438187
313.00570639999995,11.974324800466512
312.67186549999997,1.0635839273729897
312.33928810000003,2.9519620099022963
312.0079665,0.3371618572478161
311.6778931,-1.1600021098263866
311.34906010000003,-1.3362443143184972
311.0214601,2.8361254426938123
310.6950856,1.2756680463657968
310.369929,1.8546135041718597
310.04598300000004,-1.1323210459807316
309.7232403,-0.7366244286387683
309.4016935,-3.6658816466693978
309.0813356,-2.5523566951137204
308.7621594,-2.8420640262314887
308.4441577,-0.019174848352278062
308.1273236,0.26039809578842243
307.8116501,0.7493267318517277
307.49713019999996,2.5546132783696356
307.18375710000004,-3.0505354861140668
306.871524,2.878684971376215
306.5604242,2.605017577181576
306.2504509,1.0768518554310291
