wave,flux
1817.164934,-1.2554161409231794
1790.1022050000001,-5.1844454208241215
1763.812741,18.31418899712529
1738.2646949999998,79.922840296931
1713.427949,175.01918646743462
1689.273995,453.61117508887617
1665.7758310000002,1144.81561600716
1642.907862,2351.170130244373
1620.64581,4161.018888838863
1598.9666300000001,6755.798709111339
1577.8484310000001,10205.549887907666
1557.270407,14483.729591974768
1537.212767,19710.871820523265
1517.65668,25673.212147530034
1498.5842089999999,32128.25065003893
1479.978265,38949.73347743009
1461.822555,45841.07134444173
1444.101535,52664.16973039848
1426.800368,59224.39648042792
1409.904887,65307.806022056175
1393.401553,70940.36653654807
1377.2774220000001,75950.57303076307
1361.520115,80397.37384619485
1346.117782,84242.35982556995
1331.059081,87488.28073355988
1316.3331449999998,90365.21339371572
1301.92956,92781.03522019347
1287.838342,94976.78279661127
1274.049912,96892.28662479397
1260.5550779999999,98765.24359864963
1247.345017,100434.57860783783
1234.4112519999999,102044.21156165391
1221.74564,103814.96139560807
1209.340352,105448.95673356789
1197.187859,107200.12830779779
1185.28092,108979.28582711608
1173.612564,110806.01995142024
1162.1760800000002,112720.81889767435
1150.9650060000001,114618.58878306982
1139.973115,116489.38006708848
1129.194406,118509.45358333425
1118.623093,120531.96877967133
1108.253594,122538.1112914869
1098.0805269999998,124629.27735691461
1088.098695,126711.91323550676
1078.303081,128938.13590346252
1068.688841,131341.16469456072
1059.251295,133891.1172308489
1049.9859199999999,136857.1385190835
1040.8883449999998,140364.10570464734
1031.9543429999999,144621.89971687627
1023.1798259999999,149646.8090024188
1014.5608390000001,155453.11617019115
1006.0935529999999,162229.07395308962
997.774265,169855.33516679515
989.5993858999999,178585.72562459513
981.5654412999999,188362.77065375308
973.6690651,198400.31579102649
965.9069952,209041.0980336428
958.2760697000001,220078.2801224495
950.7732231000001,230763.52609211835
943.3954827,241333.02820321624
936.1399648,251388.8833448544
929.0038716,261049.904752341
921.9844879000001,270160.0386604129
915.0791782,278298.18863030715
908.2853836000002,285602.22711615666
901.6006193,292765.8555420011
895.0224714,299386.2764391454
888.548595,305796.9781474039
882.1767113,312687.6345138657
875.9046055,320025.57145386987
869.7301242999998,328495.71117520554
863.6511742999999,339042.3345341732
857.6657193,351890.96599135833
851.7717787,367449.5170864485
845.9674256000001,386467.2735451607
840.2507849,411258.9161862385
834.6200316000001,440061.9052708304
829.0733892000001,475025.0270807835
823.6091279,516807.53712331905
818.2255633999999,565694.2782362711
812.9210552000001,620366.5821798939
807.694005,681427.0746292948
802.5428559,749033.409903635
797.4660904,820867.5803341441
792.4622299,895076.5799167312
787.5298327,978642.017586502
782.6674933999999,1070205.0994127141
777.8738417999999,1171731.3603202992
773.1475413,1290084.6847008965
768.4872882999999,1428017.4947936588
763.8918112000001,1597111.7092056412
759.3598692,1800921.1088755871
754.8902515999999,2049029.3910529043
750.4817767999999,2341438.1013612817
746.1332914,2683551.9192767455
741.8436694000001,3061196.461861403
737.6118116,3461223.0686063236
733.4366444,3874315.8614791343
729.3171195,4283279.392647624
725.2522127999999,4670614.0346309235
721.2409241,5018636.564978498
717.282276,5317820.575122409
713.3753136,5554956.930393836
709.5191037000001,5739311.945061782
705.7127343,5868831.666637568
701.9553139,5951328.32449354
698.2459709,6005836.620929997
694.5838534,6031161.28653646
690.9681281000001,6041837.512134762
687.3979803,6042946.747077536
683.8726131,6042030.664486042
680.3912472999999,6039777.322114487
676.9531202000001,6041976.422647553
673.557486,6039599.744796473
670.2036149,6040333.2047125185
666.8907926,6040053.371768476
663.6183202999999,6042171.748510546
660.3855139,6041386.65490643
657.1917038,6044435.101287142
654.0362346,6041520.564153708
650.9184646000001,6042523.5263791485
647.8377654,6038386.879859681
644.7935217999999,6042722.3939840635
641.7851312999999,6041769.00058173
638.8120038,6040555.256193729
635.8735614,6042556.9549270375
632.9692378999999,6042476.220145909
630.0984786,6043310.568799937
627.2607402000001,6041843.133728342
624.4554901,6042149.809563138
621.6822068,6042308.530524631
618.940379,6041370.445009459
616.2295054,6041400.927062034
613.549095,6041767.431941332
610.8986664,6041700.713803347
608.2777476,6041275.065451746
605.6858758999999,6041010.211904745
603.1225977000001,6041212.142646663
600.5874682,6041799.767330941
598.0800512,6041836.6952314675
595.5999188999999,6041608.726128521
593.1466518,6041557.023021798
590.7198384999999,6041356.973960687
588.3190752,6041723.806833442
585.943966,6041246.544454968
583.5941226,6041427.65002928
581.2691637,6041752.135699768
578.9687155,6041318.156274144
576.692411,6041183.0117874
574.4398902,6041517.739840577
572.2107997,6040823.121363867
570.0047927,6041140.09936153
567.8215287,6041622.941026808
565.6606737000001,6041696.898450343
563.5218996,6041378.675523087
561.4048845,6041207.6891952995
559.3093121,6041102.664233092
557.2348721,6041462.78452204
555.1812597,6041129.143905583
553.1481756000001,6041514.06118294
551.1353259,6041309.56610013
549.1424218999999,6041096.2906739265
547.1691801,6041480.925045089
545.2153222000001,6041424.94266417
543.2805745000001,6041540.536512904
541.3646685,6041670.716482557
539.46734,6041239.110027963
537.5883299,6041651.430665885
535.7273833,6041517.813628734
533.8842498,6041321.480821151
532.0586836,6041486.884420686
530.2504428000001,6041735.519589646
528.45929,6041191.226323917
526.6849915,6041542.380031634
524.927318,6041201.1212772885
523.186044,6041270.182798763
521.4609475999999,6041745.392878915
519.7518110000001,6041472.134482356
518.0584200000001,6041516.009252747
516.3805639,6041761.904648344
514.7180356,6041528.427737762
513.0706316000001,6041872.385061045
511.43815149999995,6041199.2389866775
509.82039860000003,6041273.202896274
508.2171791999999,6041127.65413258
506.628303,6041337.778551981
505.05358269999994,6041358.780043424
503.4928341,6041652.27503514
501.9458762,6041499.410497623
500.41253059999997,6041046.413311404
498.8926222,6041744.177559013
497.3859785,6041422.9371805815
495.89242989999997,6041580.326493619
494.4118094,6041603.079841563
492.943953,6041257.601788445
491.488699,6041492.242033891
490.04588839999997,6041270.018594342
488.6153648,6041754.481688025
487.19697429999997,6041551.441283186
485.7905654,6041590.530412218
484.39598889999996,6041247.982528633
483.01309800000007,6041664.039930763
481.64174840000004,6041667.335051185
480.28179789999996,6041349.401821919
478.93310639999993,6041539.711215113
477.59553619999997,6041491.179008951
476.2689517,6041483.199817595
474.9532192,6041380.523814772
473.6482074,6041354.260050813
472.35378679999997,6039907.80321326
471.06982989999995,6033924.745668815
469.79621110000005,6018807.903279808
468.53280700000005,5991367.494079924
467.2794956999999,5947834.949275025
466.0361575,5884488.978206191
464.80267410000005,5797929.681613132
463.5789295,5685594.745518562
462.364809,5547321.71939823
461.1601998,5388684.231910046
459.9649909,5215396.168771772
458.7790727,5032932.59255469
457.6023374,4849501.571031008
456.4346788,4671301.034444531
455.2759921,4504643.610648502
454.12617439999997,4355353.201552729
452.9851239,4226679.310479133
451.85274060000006,4119014.0677408804
450.7289258,4032832.443718323
449.6135822,3965886.3086523223
448.5066141,3915506.536557594
447.407927,3879765.660283998
446.317428,3854499.8457969585
445.23502520000005,3836959.299582292
444.1606283,3823507.173498126
443.0941482,3810570.496804107
442.03549699999996,3794531.218300662
440.9845882,3771311.0568800583
439.9413364,3737952.756099062
438.9056575,3689554.9376794836
437.87746860000004,3622450.0579335317
436.85668780000003,3533602.22644758
435.8432345,3420135.850688463
434.83702930000004,3281082.2190977517
433.83799369999997,3115673.278510713
432.84605039999997,2926815.7704715664
431.8611232,2717120.4905873183
430.8831369,2491980.8284199075
429.9120175,2257660.088952744
428.94769169999995,2020838.295376434
427.9900874,1788452.2688514616
427.03913370000004,1566352.2539993352
426.0947602,1359916.416360804
425.1568978,1172999.889946783
424.22547829999996,1008085.2922380577
423.3004343,866167.6349545196
422.3816994,746748.9058487532
421.4692081,648165.5812064422
420.56289569999996,568635.1062639522
419.66269850000003,504852.9593358131
418.7685535,454054.54015804327
417.8803987,414057.39604658616
416.9981727,381983.09031258844
416.12181519999996,355872.4714931724
415.25126639999996,334075.42189475073
414.38646760000006,315274.6358973625
413.5273605,298781.93150381336
412.673888,283982.92193222675
411.8259934,270499.897989319
410.9836208,257990.99983579284
410.14671519999996,246553.0948186252
409.3152221,235944.5602832516
408.48908789999996,226224.29252204942
407.66825960000006,217317.03112334345
406.8526847,209139.1589492121
406.0423117,201585.39166560787
405.2370896,194572.0700994859
404.43696800000004,188018.4475554228
403.64189730000004,181903.78272404015
402.8518283,176137.02574280297
402.0667126,170628.79188971178
401.28650239999996,165413.5914373486
400.5111505,160441.03302577068
399.7406101,155440.6964074779
398.9748353,150436.80489080292
398.2137806,145349.79097170715
397.457401,140071.26180506818
396.7056521,134548.37870094588
395.9584903,128749.8130752819
395.2158722,122683.92198951336
394.4777551,116312.40518082699
393.7440968,110101.02594873092
393.0148555,104066.72877504418
392.2899901,98227.35225422363
391.56946,92807.35052570218
390.853225,87770.55303061023
390.1412452,83133.56046147742
389.43348169999996,78876.68047495309
388.7298955,74973.98132004926
388.03044839999995,71218.12444896957
387.3351027,67575.89149020106
386.6438209,64119.417499584095
385.95656610000003,60724.912780596416
385.2733019,57444.68189031001
384.5939922,54281.39836158366
383.9186014,51236.85595355229
383.2470943,48370.1135811657
382.5794362,45649.20643618522
381.9155926,43122.74141110627
381.2555296,40727.47345227048
380.59921360000004,38485.34397286586
379.9466115,36356.386399948016
379.29769039999996,34377.675308821264
378.652418,32491.835307114354
378.0107622,30723.04941429065
377.37269130000004,29052.469355317367
376.73817410000004,27473.097066385966
376.1071796,25973.449227779893
375.47967719999997,24571.68610841709
374.8556368,23225.906630674057
374.2350283,21981.382575237865
373.6178223,20820.87152941021
373.0039896,19722.641468147318
372.3935012,18702.3470768256
371.78632860000005,17747.767754591234
371.1824436,16828.394628146893
370.5818182,15945.049667054474
369.98442489999996,15091.534862534072
369.39023629999997,14244.514253750363
368.7992255,13417.165966182129
368.2113658,12593.978954873914
367.6266307,11779.460084481767
367.0449943,10969.994880802931
366.4664305,10162.712745406134
365.89091410000003,9363.473008014476
365.3184196,8580.661333163513
364.7489221,7796.122106239409
364.18239689999996,7017.3885656895045
363.61881960000005,6255.332057298791
363.058166,5474.223648542325
362.50041219999997,4715.82714434041
361.94553460000003,3983.389900290732
361.3935098,3297.696486504133
360.8443147,2656.541978250289
360.29792630000003,2079.825063903445
359.754322,1569.6851895563602
359.2134795,1124.9492294342158
358.6753765,770.3992778516476
358.1399912,507.7218122748624
357.6073018,310.20252014696604
357.077287,175.18774902644466
356.5499253,79.72152874098711
356.025196,24.66294425829842
355.50307799999996,2.662361433037072
354.983551,0.3499043724869753
354.4665945,0.5310110092804311
353.95218839999995,2.372035455170303
353.4403127,0.10862299889285072
352.9309478,2.1453281327100666
352.42407410000004,0.4106124009635924
351.9196722,1.4939807005422203
351.4177232,-2.2109452769012283
350.91820789999997,-0.3298613730388445
350.4211078,-0.5949702312935536
349.9264043,-0.17540642968051054
349.434079,-0.9592387059011532
348.9441137,4.699575384330607
348.45649060000005,0.6489506557037785
347.97119169999996,2.0760513417139963
347.48819960000003,2.0694196472581354
347.0074967,-0.9366309380435832
346.5290657,-1.1155238765640254
346.0528897,2.2589666738498564
345.5789517,1.5565920635454116
345.1072349,2.9393878131210927
344.6377228,3.321174854630431
344.17039889999995,-2.107169484987252
343.70524710000007,-1.5419004727458
343.24225110000003,4.087225966750195
342.7813952,5.4643031028902485
342.32266339999995,-0.9658024137536444
341.8660403,-1.0962533227789073
341.4115102,-1.0666902496255448
340.959058,3.617078064154405
340.5086685,-3.8763135887483786
340.06032660000005,0.8611448013900049
339.6140175,-0.7653698299943081
339.1697264,-1.6097304863698352
338.7274388,0.12159540551733612
338.28714019999995,0.4218572409814902
337.8488164,-1.870228285687424
337.41245310000005,0.3286186033015833
336.9780363,-0.09748022959392806
336.5455522,-2.2596924813692385
336.114987,-4.357107014307226
335.686327,-1.4371674902618743
335.2595588,-5.556320303292449
334.834669,0.8281181891184515
334.4116443,-1.6176368008419502
333.9904716,2.354698072884601
333.57113799999996,0.629080648299425
333.1536305,-0.04475563425102522
332.73793639999997,3.741202217905024
332.32404310000004,-1.73950832557253
331.91193799999996,0.6347809495842739
331.5016088,1.4698111733030694
331.0930432,-3.3361284481661815
330.6862289,-1.7480439257333518
330.281154,0.3412321449235237
329.8778065,-1.9945289726329285
329.47617460000004,1.3382292364787318
329.07624649999997,2.4820410953708056
328.6780106,0.4108557714603865
328.2814555,0.6341830954775907
327.88656960000003,0.8740468296243934
327.4933418,0.2483166113556093
327.1017607,0.2423520079838904
326.7118154,-1.207126511208445
326.32349480000005,1.5477281509973733
325.93678789999996,4.571355489295262
325.5516841,0.09730479414585004
325.16817260000005,1.147186923790386
324.7862428,1.9192099334634092
324.40588419999995,3.6177652232620816
324.0270864,-3.070201668801762
323.649839,-2.3216481090377017
323.2741319,1.1178876198665493
322.8999548,-3.9931119299686806
322.5272977,-1.5022771338543788
322.1561508,0.7050770607046043
321.786504,3.2220705519653907
321.4183476,2.7181221815245684
321.0516719,0.2844190381764015
320.6864673,-2.3351047763829964
320.3227243,-0.4071594957408329
319.96043330000003,2.188770617957485
319.5995851,-0.15046291397754025
319.2401704,0.579732137350019
318.8821799,2.491565963565354
318.5256045,-3.2558929857789978
318.1704352,-0.13571226948595522
317.8166631,1.6996520221092195
317.4642791,-1.078519279593969
317.1132746,-0.17199593207963793
316.76364069999994,-0.5669813155561495
316.4153688,1.2290739900339824
316.06845039999996,2.8860338908502596
315.72287689999996,0.8964837881390992
315.37863980000003,4.7775013401043065
315.0357308,-7.301472206330386
314.6941415,3.9054802035256686
314.3538639,-1.809803649655903
314.0148896,3.5921481717682004
313.6772106,-3.8732597390541517
313.3408189,-1.312644052375378
313.00570639999995,4.841512382189284
312.67186549999997,0.03565278104675476
312.33928810000003,-0.6441497794404596
312.0079665,1.126150367978302
311.6778931,-2.82940790616193
311.34906010000003,-0.3276576339338901
311.0214601,1.1823589479667214
310.6950856,-1.7406327339191912
310.369929,-2.1134655960112307
310.04598300000004,-0.8262774581262603
309.7232403,2.8791212774363
309.4016935,5.045366210102884
309.0813356,-3.3864638450777638
308.7621594,1.012377832628937
308.4441577,0.136474743888494
308.1273236,-0.94206157401141
307.8116501,1.8332662799158816
307.49713019999996,-1.4056519385570052
307.18375710000004,0.9387464515249704
306.871524,0.642820272143704
306.5604242,-4.701433869000981
306.2504509,0.7015775899587992
