wave,flux
1817.164934,11.567045109995586
1790.1022050000001,-3.3754910871469224
1763.812741,-12.738233806906823
1738.2646949999998,26.030902106707217
1713.427949,39.744242120177496
1689.273995,1955.6771172466288
1665.7758310000002,6444.372517383395
1642.907862,13666.127028501376
1620.64581,23531.125013231136
1598.9666300000001,35887.741120317165
1577.8484310000001,50839.03283387286
1557.270407,68374.84596115045
1537.212767,88499.11084086484
1517.65668,107563.73307423963
1498.5842089999999,124376.4550757625
1479.978265,138872.09727537606
1461.822555,151113.91985324808
1444.101535,161192.7188755657
1426.800368,168993.86931092024
1409.904887,174556.07669678688
1393.401553,177895.20460632167
1377.2774220000001,180639.30520166454
1361.520115,183363.33752726574
1346.117782,186148.1101518862
1331.059081,188967.20045994327
1316.3331449999998,191607.21244211376
1301.92956,194218.41712376324
1287.838342,196900.4643910302
1274.049912,199446.68534001173
1260.5550779999999,202106.2899222651
1247.345017,204838.14539092587
1234.4112519999999,207671.37730224003
1221.74564,210252.2963849912
1209.340352,212889.79831078934
1197.187859,215719.80454447973
1185.28092,218636.32736408454
1173.612564,221543.7006193072
1162.1760800000002,224428.31633174056
1150.9650060000001,227125.2574362421
1139.973115,230084.1389176853
1129.194406,233003.36665935532
1118.623093,236076.32585858286
1108.253594,238741.43082052746
1098.0805269999998,241944.6469939093
1088.098695,244561.58694495464
1078.303081,247980.36290116503
1068.688841,251801.2814541867
1059.251295,256768.8930292773
1049.9859199999999,263567.88346787915
1040.8883449999998,272083.0601235412
1031.9543429999999,283692.45325960644
1023.1798259999999,298028.97701177286
1014.5608390000001,315672.0417734309
1006.0935529999999,335838.1309928524
997.774265,358955.8371435863
989.5993858999999,383449.1878088157
981.5654412999999,408676.8075562807
973.6690651,433913.0318695724
965.9069952,457848.745119043
958.2760697000001,479389.9409409682
950.7732231000001,498353.796257841
943.3954827,513698.3188101014
936.1399648,525679.3772496206
929.0038716,533275.7273667582
921.9844879000001,538105.0659023221
915.0791782,540230.5847992679
908.2853836000002,540071.9348295797
901.6006193,539647.4473674074
895.0224714,540544.891672794
888.548595,545012.463127539
882.1767113,552781.9333639066
875.9046055,567828.6812155136
869.7301242999998,589590.4641736018
863.6511742999999,619550.7323866661
857.6657193,661414.456527594
851.7717787,715354.9292144881
845.9674256000001,784050.6030687988
840.2507849,873594.8239335531
834.6200316000001,981066.2704483321
829.0733892000001,1110711.7308193513
823.6091279,1260528.0298534986
818.2255633999999,1431033.4156579264
812.9210552000001,1614545.2437329337
807.694005,1804199.66685276
802.5428559,1997518.2967139129
797.4660904,2186218.7396668955
792.4622299,2373589.2790434714
787.5298327,2560945.0531285857
782.6674933999999,2767454.4899603035
777.8738417999999,2999845.981579632
773.1475413,3256695.9784362814
768.4872882999999,3539773.8350548227
763.8918112000001,3850024.7092860974
759.3598692,4192255.2993064723
754.8902515999999,4545869.534854757
750.4817767999999,4889124.003352335
746.1332914,5198292.531742051
741.8436694000001,5455035.393515637
737.6118116,5662541.105330723
733.4366444,5818214.765366732
729.3171195,5935196.760766047
725.2522127999999,6001878.403078305
721.2409241,6034790.29616424
717.282276,6041678.184973463
713.3753136,6044553.325515739
709.5191037000001,6041344.114023189
705.7127343,6039586.396097292
701.9553139,6040398.38362748
698.2459709,6039235.353408783
694.5838534,6040982.301141838
690.9681281000001,6040406.962573154
687.3979803,6043817.902936977
683.8726131,6042711.246814065
680.3912472999999,6044395.2393181175
676.9531202000001,6041474.61326373
673.557486,6041160.965664334
670.2036149,6043023.703073186
666.8907926,6039910.987729858
663.6183202999999,6041396.937303964
660.3855139,6038982.951648433
657.1917038,6042063.5605871985
654.0362346,6041005.9345733365
650.9184646000001,6041631.910063627
647.8377654,6041511.339011136
644.7935217999999,6040335.2698793365
641.7851312999999,6039635.90512218
638.8120038,6041045.375097195
635.8735614,6041965.250304622
632.9692378999999,6040903.047651175
630.0984786,6041930.442476532
627.2607402000001,6041084.854947461
624.4554901,6040910.988829521
621.6822068,6041155.680712558
618.940379,6042209.045960517
616.2295054,6041215.954119522
613.549095,6041110.210575373
610.8986664,6041367.498571081
608.2777476,6036514.641572882
605.6858758999999,6022988.265529797
603.1225977000001,6002301.288663152
600.5874682,5978224.5466265585
598.0800512,5954587.214491652
595.5999188999999,5930994.758118941
593.1466518,5908415.902530667
590.7198384999999,5885182.632616811
588.3190752,5872450.90483541
585.943966,5875812.86068968
583.5941226,5893872.904172008
581.2691637,5913880.210813904
578.9687155,5922247.470393286
576.692411,5915460.870735778
574.4398902,5888788.851316627
572.2107997,5843720.88790346
570.0047927,5779426.074379573
567.8215287,5694615.05548797
565.6606737000001,5595513.985060178
563.5218996,5499000.5822898615
561.4048845,5424662.914754062
559.3093121,5382332.32275115
557.2348721,5375518.246621537
555.1812597,5405370.451671524
553.1481756000001,5465701.762526408
551.1353259,5550242.682774158
549.1424218999999,5647947.579819227
547.1691801,5748842.200290041
545.2153222000001,5837839.2089160625
543.2805745000001,5911453.5258423565
541.3646685,5967067.558799792
539.46734,6004889.151720137
537.5883299,6027531.175796147
535.7273833,6038273.463073217
533.8842498,6041333.735523805
532.0586836,6041635.358343505
530.2504428000001,6041312.402162075
528.45929,6041640.861358178
526.6849915,6041411.522284327
524.927318,6041422.863783153
523.186044,6041319.39403662
521.4609475999999,6041187.607948477
519.7518110000001,6041710.2202673275
518.0584200000001,6041243.360920725
516.3805639,6041130.389931533
514.7180356,6041430.778206508
513.0706316000001,6041551.664582149
511.43815149999995,6041420.277839999
509.82039860000003,6041579.755909728
508.2171791999999,6041258.682429883
506.628303,6041233.550829562
505.05358269999994,6041350.127873619
503.4928341,6041088.728839357
501.9458762,6041386.985444292
500.41253059999997,6041633.407693324
498.8926222,6041287.548043341
497.3859785,6041620.230059765
495.89242989999997,6041169.072798663
494.4118094,6041467.012789372
492.943953,6041399.773630425
491.488699,6041580.444928073
490.04588839999997,6041732.220447834
488.6153648,6041213.91266346
487.19697429999997,6041680.058774313
485.7905654,6041052.933032517
484.39598889999996,6041601.319931112
483.01309800000007,6040755.703554656
481.64174840000004,6041536.762887107
480.28179789999996,6041136.359609468
478.93310639999993,6041000.088617153
477.59553619999997,6041332.834579432
476.2689517,6041822.518106836
474.9532192,6040878.26122009
473.6482074,6041474.621513272
472.35378679999997,6041235.819998952
471.06982989999995,6041459.943923548
469.79621110000005,6041746.705818962
468.53280700000005,6042066.654646043
467.2794956999999,6041073.9810483
466.0361575,6041167.529771042
464.80267410000005,6041268.870341062
463.5789295,6041459.045839985
462.364809,6041305.373742633
461.1601998,6037025.587476765
459.9649909,6020614.696434971
458.7790727,5989196.8113451125
457.6023374,5941475.498651383
456.4346788,5877313.241164259
455.2759921,5799700.556226647
454.12617439999997,5709084.265697382
452.9851239,5608752.189539825
451.85274060000006,5510065.588702018
450.7289258,5425622.765813954
449.6135822,5364321.342157057
448.5066141,5327851.895343862
447.407927,5315063.95212318
446.317428,5322074.686470118
445.23502520000005,5343876.381787433
444.1606283,5375808.064104796
443.0941482,5409827.417759607
442.03549699999996,5435629.0720871575
440.9845882,5447713.444817813
439.9413364,5439903.0124022
438.9056575,5410082.497740943
437.87746860000004,5354664.629465532
436.85668780000003,5271599.573445066
435.8432345,5157671.6727565415
434.83702930000004,5012483.733963944
433.83799369999997,4836065.500626404
432.84605039999997,4631142.245361462
431.8611232,4403020.192884085
430.8831369,4160472.425682672
429.9120175,3913235.5845938213
428.94769169999995,3672009.0888773096
427.9900874,3446133.4036238682
427.03913370000004,3244022.2311671413
426.0947602,3071756.9725333983
425.1568978,2932116.623346711
424.22547829999996,2824309.0032385387
423.3004343,2745801.312027496
422.3816994,2689828.9896954163
421.4692081,2650981.272202817
420.56289569999996,2621366.4351747963
419.66269850000003,2594695.8069618624
418.7685535,2564289.2148081213
417.8803987,2525828.284379617
416.9981727,2475786.91152261
416.12181519999996,2412401.7450053343
415.25126639999996,2335237.798438417
414.38646760000006,2245615.907522969
413.5273605,2145104.7426495967
412.673888,2036385.7119809263
411.8259934,1922308.6799701487
410.9836208,1806373.615487557
410.14671519999996,1690910.6563612712
409.3152221,1578952.728676677
408.48908789999996,1472118.2970630291
407.66825960000006,1372262.9097652223
406.8526847,1280270.7094177369
406.0423117,1196959.530732465
405.2370896,1122632.1757906121
404.43696800000004,1057408.2037785472
403.64189730000004,1000922.105723592
402.8518283,952721.97574727
402.0667126,911996.6052059956
401.28650239999996,877842.5317675346
400.5111505,849047.8485507767
399.7406101,821049.7724294647
398.9748353,792697.894350455
398.2137806,762623.0464155229
397.457401,729397.5253563753
396.7056521,691777.433659764
395.9584903,649397.0805364643
395.2158722,601863.8679329507
394.4777551,549414.3699753279
393.7440968,498608.3396042801
393.0148555,449986.6293492245
392.2899901,403263.6840113953
391.56946,360770.38938185346
390.853225,322823.1356256001
390.1412452,289708.33895869344
389.43348169999996,261682.8542278497
388.7298955,239058.7845780687
388.03044839999995,218344.96904122282
387.3351027,199809.07808209927
386.6438209,184009.92444405926
385.95656610000003,169960.01401587142
385.2733019,157673.37077183812
384.5939922,146868.42332059777
383.9186014,137461.9614803668
383.2470943,128862.75771691346
382.5794362,120957.9595784858
381.9155926,113611.85099784085
381.2555296,106375.56591466039
380.59921360000004,99242.52758044387
379.9466115,92024.69309965394
379.29769039999996,84818.99164073901
378.652418,77540.60829134316
378.0107622,71019.43049897559
377.37269130000004,65213.40570968181
376.73817410000004,60071.625778046575
376.1071796,55525.824898462735
375.47967719999997,51599.0651853425
374.8556368,48364.58269876611
374.2350283,45744.225341652236
373.6178223,43707.752868431584
373.0039896,41842.94334693271
372.3935012,40095.30191519523
371.78632860000005,38515.66190748596
371.1824436,37087.201468927764
370.5818182,35757.21783769166
369.98442489999996,34408.555468692924
369.39023629999997,33056.92503447703
368.7992255,31668.437278364538
368.2113658,30267.042173494712
367.6266307,28827.61382129925
367.0449943,27324.139236782183
366.4664305,25804.022386636967
365.89091410000003,24319.947260335077
365.3184196,22931.48576446437
364.7489221,21601.38758267457
364.18239689999996,20325.344424184368
363.61881960000005,19105.548185434523
363.058166,17933.13523871357
362.50041219999997,16797.11179648228
361.94553460000003,15704.246777702781
361.3935098,14614.658191833509
360.8443147,13520.610542011467
360.29792630000003,12450.55286854493
359.754322,11506.295625090366
359.2134795,10681.268182153148
358.6753765,9973.595838183792
358.1399912,9360.12336947537
357.6073018,8851.215395685716
357.077287,8416.891837976056
356.5499253,8046.902915855233
356.025196,7736.4287361550705
355.50307799999996,7404.378075037937
354.983551,7030.79333057137
354.4665945,6625.842041540902
353.95218839999995,6192.756409200051
353.4403127,5780.618942811321
352.9309478,5352.47664486599
352.42407410000004,4925.7884948037545
351.9196722,4484.007112848356
351.4177232,4045.5332097043406
350.91820789999997,3659.6924254473997
350.4211078,3306.645682595483
349.9264043,2975.6959638570784
349.434079,2644.266377808589
348.9441137,2354.2765136718813
348.45649060000005,2087.247077029833
347.97119169999996,1870.0303853180426
347.48819960000003,1672.9653761883703
347.0074967,1496.7290140235239
346.5290657,1346.5408012734333
346.0528897,1220.8713351128752
345.5789517,1124.1133880709688
345.1072349,1049.21830482246
344.6377228,978.6097002380844
344.17039889999995,915.8777455028239
343.70524710000007,863.2792444012953
343.24225110000003,826.6250092965673
342.7813952,780.4200702524208
342.32266339999995,727.7958716400913
341.8660403,679.0295155948729
341.4115102,628.931903826871
340.959058,569.8715343065768
340.5086685,520.6987346175804
340.06032660000005,453.3629623203525
339.6140175,391.2625002293442
339.1697264,318.0247469008085
338.7274388,261.5571820235093
338.28714019999995,209.5077290574095
337.8488164,164.62969466741282
337.41245310000005,126.01788346350736
336.9780363,97.37182161661859
336.5455522,77.91045348161967
336.114987,53.538390057125035
335.686327,40.220403446875295
335.2595588,31.323832165004802
334.834669,21.225125335229798
334.4116443,18.152674746764184
333.9904716,7.369589392241592
333.57113799999996,4.652431199196057
333.1536305,2.765578221307976
332.73793639999997,-5.275207396594926
332.32404310000004,0.6040016932003802
331.91193799999996,-0.2302049344132608
331.5016088,-0.06395933016149613
331.0930432,2.674390456347575
330.6862289,-5.0099078106143216
330.281154,-2.0444040975709283
329.8778065,-0.7908943173012796
329.47617460000004,1.2482564753833645
329.07624649999997,-0.5096000769810944
328.6780106,1.2312740920542573
328.2814555,-3.33575381733394
327.88656960000003,-2.7388353446635563
327.4933418,-1.7511541234975756
327.1017607,-2.1397262793884657
326.7118154,0.3471479963978699
326.32349480000005,-1.6338294377290197
325.93678789999996,1.709365868803266
325.5516841,-2.014852067404225
325.16817260000005,0.9050527800367604
324.7862428,3.779846660363809
324.40588419999995,0.013813026424869378
324.0270864,0.5738846997160993
323.649839,1.0779815362440073
323.2741319,1.27528654095547
322.8999548,2.3386032948872586
322.5272977,-1.9445238066049089
322.1561508,-3.173017108608883
321.786504,-2.720030148675687
321.4183476,-0.6792243362974701
321.0516719,-1.3287068745592432
320.6864673,0.8311239770248773
320.3227243,2.695963688432524
319.96043330000003,3.0644825213505698
319.5995851,2.2270488661698526
319.2401704,1.8690755417907883
318.8821799,2.028882670736857
318.5256045,1.3151044913801122
318.1704352,-2.974923372486017
317.8166631,-4.735717534161321
317.4642791,-2.640395480017032
317.1132746,3.202587396194054
316.76364069999994,-2.052061500179068
316.4153688,-4.915937169282624
316.06845039999996,1.5413265476804556
315.72287689999996,-2.1389049533399715
315.37863980000003,0.7302026366960777
315.0357308,0.6682648648493575
314.6941415,0.17433094800372745
314.3538639,-0.3779293043238093
314.0148896,-1.2832447888303906
313.6772106,-0.20231459829349094
313.3408189,-0.608599379280489
313.00570639999995,-5.162654611987832
312.67186549999997,-3.1707244977146014
312.33928810000003,-2.4205523250673138
312.0079665,1.4301522024238784
311.6778931,0.4327364277111889
311.34906010000003,2.9598097223700965
311.0214601,-0.03538624042427412
310.6950856,-3.4145515314492387
310.369929,3.306460452341496
310.04598300000004,0.4287456616913273
309.7232403,-2.8727141166579453
309.4016935,-0.2663383556723156
309.0813356,-0.19006017730247154
308.7621594,-1.0153339868212072
308.4441577,3.0792858740416578
308.1273236,1.1963888232212432
307.8116501,1.4030252277414368
307.49713019999996,-1.6249715770596231
307.18375710000004,2.5600351817973075
306.871524,-0.18331963111114344
306.5604242,2.089569111069395
306.2504509,2.5035240689510307
