wave,flux
1817.164934,6.2026851733563175
1790.1022050000001,-3.3377371743588915
1763.812741,12.860081531694908
1738.2646949999998,38.41843183340304
1713.427949,104.59812064914736
1689.273995,359.679701785811
1665.7758310000002,931.7724253524084
1642.907862,1906.43542729263
1620.64581,3346.882846135666
1598.9666300000001,5248.579217511904
1577.8484310000001,7771.711196117151
1557.270407,10883.727988705754
1537.212767,14671.332830584217
1517.65668,18852.58273044857
1498.5842089999999,23288.854223515995
1479.978265,27903.701127571574
1461.822555,32596.17061754288
1444.101535,37289.09383934528
1426.800368,41927.45484149565
1409.904887,46582.8684499858
1393.401553,50931.182039687315
1377.2774220000001,55340.990230961455
1361.520115,59608.669446644286
1346.117782,64001.13901097541
1331.059081,68471.33202744805
1316.3331449999998,73042.85963760008
1301.92956,77670.13474635153
1287.838342,82274.67771651251
1274.049912,86991.55788784397
1260.5550779999999,91782.67756133924
1247.345017,96548.77831301118
1234.4112519999999,101303.47310718276
1221.74564,106002.93284411596
1209.340352,110769.98639448678
1197.187859,115393.92804236774
1185.28092,120136.64953649386
1173.612564,124911.30141529845
1162.1760800000002,129496.86002516936
1150.9650060000001,134110.30881816856
1139.973115,138919.6396974623
1129.194406,143695.36845582598
1118.623093,148423.75510816605
1108.253594,153071.79170870912
1098.0805269999998,157681.44545988768
1088.098695,162272.99780857316
1078.303081,166850.2575951872
1068.688841,171689.61103615275
1059.251295,176442.01913883878
1049.9859199999999,181522.4101967182
1040.8883449999998,186875.66490978425
1031.9543429999999,192989.40511758148
1023.1798259999999,199283.47313086968
1014.5608390000001,206366.87483636886
1006.0935529999999,214122.66224605625
997.774265,222112.71347046448
989.5993858999999,231358.51601765785
981.5654412999999,240585.33371879387
973.6690651,250333.90675438638
965.9069952,260470.94948203288
958.2760697000001,270768.85691215034
950.7732231000001,281092.89849494
943.3954827,291045.0156536365
936.1399648,301130.8778160602
929.0038716,310661.65706660174
921.9844879000001,320249.47591318085
915.0791782,329351.60759661644
908.2853836000002,338586.3286341214
901.6006193,347882.85798367986
895.0224714,357137.2557227665
888.548595,366944.43947818177
882.1767113,377563.20501473936
875.9046055,388631.67983140453
869.7301242999998,401493.72862422897
863.6511742999999,415046.87104015594
857.6657193,430964.06050513935
851.7717787,449289.1872097225
845.9674256000001,469932.0846908343
840.2507849,494706.350524396
834.6200316000001,522748.3501300814
829.0733892000001,553856.3684186138
823.6091279,588842.9323625222
818.2255633999999,629557.2904220138
812.9210552000001,673422.2425209049
807.694005,722091.830475513
802.5428559,774791.0918939679
797.4660904,830207.2099410844
792.4622299,890745.9294664962
787.5298327,954395.209259692
782.6674933999999,1026013.4195342544
777.8738417999999,1106204.6931792386
773.1475413,1202632.562737932
768.4872882999999,1317317.9049849706
763.8918112000001,1456465.556180437
759.3598692,1624708.3455676544
754.8902515999999,1826633.106033748
750.4817767999999,2062352.8578641238
746.1332914,2338117.224871886
741.8436694000001,2644541.0102763465
737.6118116,2977654.0910302983
733.4366444,3331779.918957193
729.3171195,3692762.774691191
725.2522127999999,4056001.07637666
721.2409241,4409536.5910773035
717.282276,4733159.677526664
713.3753136,5030217.876717383
709.5191037000001,5288842.8604648085
705.7127343,5506076.901921203
701.9553139,5677191.012264859
698.2459709,5809884.013696281
694.5838534,5903351.1377479285
690.9681281000001,5965630.8856869815
687.3979803,6004538.797597882
683.8726131,6028124.639786366
680.3912472999999,6037555.961986938
676.9531202000001,6040276.179093075
673.557486,6042099.333309128
670.2036149,6040020.692028582
666.8907926,6041126.6764478525
663.6183202999999,6043761.652610248
660.3855139,6042457.717154007
657.1917038,6041763.369822299
654.0362346,6042946.760088563
650.9184646000001,6044580.772352554
647.8377654,6040617.225767299
644.7935217999999,6041502.066328789
641.7851312999999,6042169.329966782
638.8120038,6041415.475436282
635.8735614,6040840.66739864
632.9692378999999,6040686.563351237
630.0984786,6042371.580622218
627.2607402000001,6041920.94946296
624.4554901,6039817.595542973
621.6822068,6042037.893488457
618.940379,6041068.156495538
616.2295054,6041448.591376084
613.549095,6041407.6540966565
610.8986664,6041763.912332929
608.2777476,6041020.630757447
605.6858758999999,6041572.542049496
603.1225977000001,6041469.985510472
600.5874682,6040883.083439182
598.0800512,6041583.502833183
595.5999188999999,6041034.615962722
593.1466518,6041833.006443646
590.7198384999999,6041476.486296092
588.3190752,6041478.617010995
585.943966,6041423.359537653
583.5941226,6040970.0907714525
581.2691637,6041331.911785877
578.9687155,6041521.2140451325
576.692411,6041193.5215556435
574.4398902,6041578.297077972
572.2107997,6041711.775056561
570.0047927,6041511.67271304
567.8215287,6041265.950985841
565.6606737000001,6041433.099266115
563.5218996,6041487.685382658
561.4048845,6041496.277614318
559.3093121,6041718.131292103
557.2348721,6041890.095917523
555.1812597,6041403.259105585
553.1481756000001,6041436.8162333565
551.1353259,6041929.0341755515
549.1424218999999,6041539.073137715
547.1691801,6041225.608959021
545.2153222000001,6041456.809131439
543.2805745000001,6041171.188150825
541.3646685,6041210.900020772
539.46734,6041555.663713862
537.5883299,6041612.561573296
535.7273833,6041718.214546436
533.8842498,6041194.33972357
532.0586836,6041327.167940993
530.2504428000001,6041135.9954229975
528.45929,6041047.123003971
526.6849915,6041201.756139607
524.927318,6041415.565171155
523.186044,6041108.963330142
521.4609475999999,6041160.110665964
519.7518110000001,6041381.468427585
518.0584200000001,6041607.124018242
516.3805639,6041538.412609762
514.7180356,6041216.127514084
513.0706316000001,6041944.275454299
511.43815149999995,6041303.18411533
509.82039860000003,6041123.355363231
508.2171791999999,6041400.1460254975
506.628303,6041463.919334721
505.05358269999994,6041068.856532441
503.4928341,6041101.09928918
501.9458762,6041608.319162128
500.41253059999997,6041089.331095378
498.8926222,6041471.133584701
497.3859785,6041678.588499097
495.89242989999997,6041304.756996751
494.4118094,6041305.033285245
492.943953,6040979.560948192
491.488699,6041220.607251805
490.04588839999997,6041012.056530923
488.6153648,6041852.332539158
487.19697429999997,6041403.660039581
485.7905654,6041495.888144556
484.39598889999996,6041794.481044347
483.01309800000007,6041561.531951145
481.64174840000004,6041659.256445277
480.28179789999996,6041161.44045424
478.93310639999993,6041546.192283888
477.59553619999997,6041188.046905514
476.2689517,6041482.325353808
474.9532192,6041132.055868832
473.6482074,6041386.239893376
472.35378679999997,6041477.459876191
471.06982989999995,6041192.733826581
469.79621110000005,6041089.536826448
468.53280700000005,6038304.285698257
467.2794956999999,6029511.016578887
466.0361575,6012241.4911789475
464.80267410000005,5983492.076603799
463.5789295,5940209.954462776
462.364809,5879446.9168032585
461.1601998,5798471.961344928
459.9649909,5694174.577226527
458.7790727,5569622.560999215
457.6023374,5427272.618368334
456.4346788,5269729.5949562285
455.2759921,5100764.443311175
454.12617439999997,4923012.736100927
452.9851239,4741899.329706385
451.85274060000006,4560287.042823318
450.7289258,4383422.132109534
449.6135822,4211639.66584905
448.5066141,4047641.734501483
447.407927,3892877.476105502
446.317428,3748156.419404225
445.23502520000005,3614597.5422413163
444.1606283,3492555.0403916645
443.0941482,3381271.412583354
442.03549699999996,3280199.5340038976
440.9845882,3187461.4345355514
439.9413364,3102775.3557920107
438.9056575,3023020.814946216
437.87746860000004,2947000.249860337
436.85668780000003,2872829.130560834
435.8432345,2798608.493282457
434.83702930000004,2723470.923081358
433.83799369999997,2647045.2234270102
432.84605039999997,2569593.915684023
431.8611232,2491616.058249876
430.8831369,2413912.688498762
429.9120175,2338431.966896624
428.94769169999995,2266372.25177606
427.9900874,2199496.302255435
427.03913370000004,2139829.1337173795
426.0947602,2087696.1346585942
425.1568978,2044181.1771788097
424.22547829999996,2009314.6782713004
423.3004343,1982498.496008668
422.3816994,1962285.2170010037
421.4692081,1946714.7324085415
420.56289569999996,1933542.9668929062
419.66269850000003,1919985.6196771476
418.7685535,1903316.1617167229
417.8803987,1881119.486657584
416.9981727,1851871.669971752
416.12181519999996,1814140.2077608446
415.25126639999996,1768150.1522354009
414.38646760000006,1714718.4710940062
413.5273605,1655193.7830540524
412.673888,1592536.3981780296
411.8259934,1529233.143167845
410.9836208,1467977.9926998946
410.14671519999996,1411262.6611837337
409.3152221,1360938.56324186
408.48908789999996,1317915.2650245924
407.66825960000006,1282303.7992315132
406.8526847,1253599.422447075
406.0423117,1230561.1475992466
405.2370896,1211615.0001927877
404.43696800000004,1194152.1862686365
403.64189730000004,1176976.057847218
402.8518283,1158166.5678533495
402.0667126,1136427.3021870279
401.28650239999996,1110863.4578883816
400.5111505,1080897.26008477
399.7406101,1046340.9068378477
398.9748353,1007686.3113753134
398.2137806,965168.7406387012
397.457401,919470.8057635884
396.7056521,871579.7371954769
395.9584903,822007.8080464149
395.2158722,771818.8783779972
394.4777551,721637.8363980232
393.7440968,672518.3800716932
393.0148555,625137.9785433202
392.2899901,580036.5795297654
391.56946,537797.4003751493
390.853225,498997.6163091147
390.1412452,463816.65284830454
389.43348169999996,432376.42067175306
388.7298955,404724.9121892143
388.03044839999995,380639.0884336488
387.3351027,359843.14046537096
386.6438209,341886.4212297737
385.95656610000003,326345.12592131976
385.2733019,312480.79072102235
384.5939922,299883.090445543
383.9186014,287859.2888290411
383.2470943,275970.04276720673
382.5794362,263624.4788065782
381.9155926,250705.54532118762
381.2555296,237002.67896090305
380.59921360000004,222418.140789109
379.9466115,207123.0099889752
379.29769039999996,191319.4694328202
378.652418,175304.3642801952
378.0107622,159487.37779932594
377.37269130000004,144082.3628128163
376.73817410000004,129565.24604834196
376.1071796,116099.04595616172
375.47967719999997,103923.51861201457
374.8556368,93062.18036483976
374.2350283,83564.20816941856
373.6178223,75413.00761803573
373.0039896,68474.36045684355
372.3935012,62618.584260981086
371.78632860000005,57695.49554436844
371.1824436,53542.74012781402
370.5818182,50021.858878943145
369.98442489999996,47012.265586708985
369.39023629999997,44376.021745094855
368.7992255,42070.24676658586
368.2113658,39996.24987074439
367.6266307,38095.69759237216
367.0449943,36334.84091152213
366.4664305,34681.289879023534
365.89091410000003,33125.621186708304
365.3184196,31669.876423694088
364.7489221,30277.294953536377
364.18239689999996,28948.518624886405
363.61881960000005,27692.390729037197
363.058166,26499.326994531573
362.50041219999997,25335.148796409125
361.94553460000003,24245.906044514293
361.3935098,23181.901638559222
360.8443147,22179.368694776334
360.29792630000003,21234.22358138452
359.754322,20333.95759297283
359.2134795,19464.01950894733
358.6753765,18641.91674077112
358.1399912,17871.12187035901
357.6073018,17128.4166963549
357.077287,16415.356801855618
356.5499253,15746.646312851171
356.025196,15080.631600078039
355.50307799999996,14431.646879029968
354.983551,13802.39935128553
354.4665945,13171.607578052055
353.95218839999995,12554.312471622088
353.4403127,11945.862341407725
352.9309478,11321.100865723574
352.42407410000004,10708.929104369368
351.9196722,10109.133119659657
351.4177232,9523.261018928682
350.91820789999997,8952.380845780224
350.4211078,8428.7317875938
349.9264043,7929.703451109283
349.434079,7462.680040417603
348.9441137,7041.076876897322
348.45649060000005,6675.0903227748995
347.97119169999996,6340.150066008124
347.48819960000003,6026.052383752478
347.0074967,5742.633064792863
346.5290657,5460.552862947227
346.0528897,5180.816825502109
345.5789517,4912.526905743112
345.1072349,4640.079331727524
344.6377228,4363.047024483952
344.17039889999995,4075.0858711386263
343.70524710000007,3795.0253128349
343.24225110000003,3518.8484066384367
342.7813952,3253.9223414816724
342.32266339999995,2998.8328219366585
341.8660403,2749.6698381140777
341.4115102,2510.919428593477
340.959058,2292.568415147339
340.5086685,2100.179390733594
340.06032660000005,1911.610646079729
339.6140175,1734.9475349461884
339.1697264,1575.85454211889
338.7274388,1424.1009875067655
338.28714019999995,1291.9783394659485
337.8488164,1179.3316031090376
337.41245310000005,1068.9660876489
336.9780363,978.4549635685373
336.5455522,902.9674826371028
336.114987,832.9692806811129
335.686327,771.2367669065276
335.2595588,719.0195364528781
334.834669,664.6186615115491
334.4116443,616.6494857577402
333.9904716,569.9844130625652
333.57113799999996,526.2899691048822
333.1536305,479.35975530238176
332.73793639999997,434.5490646312956
332.32404310000004,385.81558083850325
331.91193799999996,338.00001972355216
331.5016088,285.7215765125388
331.0930432,247.07379786673363
330.6862289,196.1796853238241
330.281154,152.27626364904103
329.8778065,109.18654712603224
329.47617460000004,79.90579988221133
329.07624649999997,52.8159473727038
328.6780106,36.790259113928585
328.2814555,22.805989140005465
327.88656960000003,7.424808491663115
327.4933418,8.777870102756442
327.1017607,4.785280841883859
326.7118154,3.5492802260197176
326.32349480000005,-1.7700175297764666
325.93678789999996,5.4253469711171185
325.5516841,-2.1266975360562324
325.16817260000005,1.989883920668087
324.7862428,-2.4139230204257944
324.40588419999995,2.927621555759895
324.0270864,0.5073022359615771
323.649839,1.907515268608901
323.2741319,3.2536098775436115
322.8999548,5.761440533681152
322.5272977,-2.3607217394748443
322.1561508,-2.236580670333621
321.786504,2.1997068759174505
321.4183476,1.0216418290457758
321.0516719,0.7235188695105512
320.6864673,-0.9820502920246366
320.3227243,-1.835274370067282
319.96043330000003,-2.9079833796982832
319.5995851,2.95027595141838
319.2401704,2.3467032481021177
318.8821799,1.1797638531600414
318.5256045,-3.5670773812132643
318.1704352,0.2611556747916033
317.8166631,1.077478260925797
317.4642791,-1.2206004588386243
317.1132746,2.5022840734925533
316.76364069999994,-3.0512773279585126
316.4153688,-1.562082179922603
316.06845039999996,-3.5397731865157933
315.72287689999996,-0.9284211939117608
315.37863980000003,-1.83037025880984
315.0357308,-0.2521291223567448
314.6941415,2.8052931140045136
314.3538639,1.1585086953103507
314.0148896,2.1831163526786925
313.6772106,1.333461487720682
313.3408189,-0.5890135389233261
313.00570639999995,-2.6036867474183034
312.67186549999997,2.7754703946799686
312.33928810000003,-1.0701979651749054
312.0079665,-2.6808904153682382
311.6778931,-0.5360820784541617
311.34906010000003,1.477651274033956
311.0214601,4.083696227998323
310.6950856,0.6990305331893647
310.369929,1.9230405921944755
310.04598300000004,-4.408625118269153
309.7232403,1.3804158108230764
309.4016935,-3.578788210487978
309.0813356,-1.0968747499451459
308.7621594,-0.4719927357882971
308.4441577,0.2876303872872144
308.1273236,1.2256178625105447
307.8116501,1.094499437474996
307.49713019999996,2.2348196508944125
307.18375710000004,-0.149993493724651
306.871524,-3.184689800193125
306.5604242,-2.1332348234861045
306.2504509,-0.3443310565926329
