wave,flux
1817.164934,-1.9943694905579323
1790.1022050000001,-8.649640470548334
1763.812741,14.14995178021041
1738.2646949999998,45.490660703194465
1713.427949,120.57243477827956
1689.273995,296.89843765145775
1665.7758310000002,737.4761650527347
1642.907862,1484.9278654509146
1620.64581,2664.854525306667
1598.9666300000001,4242.929058233988
1577.8484310000001,6324.932325850284
1557.270407,8972.232553865992
1537.212767,12155.103134630057
1517.65668,15877.764397329081
1498.5842089999999,19847.98244746702
1479.978265,23991.955664200585
1461.822555,28300.53399999336
1444.101535,32618.326440381716
1426.800368,37033.11890390048
1409.904887,41347.361048772786
1393.401553,45585.300495420124
1377.2774220000001,49767.68572114295
1361.520115,53915.22144394484
1346.117782,58040.092315677364
1331.059081,62248.1217698621
1316.3331449999998,66359.17114792184
1301.92956,70601.4144955644
1287.838342,74827.29213703125
1274.049912,79109.1037332109
1260.5550779999999,83501.26195701018
1247.345017,87763.60853613196
1234.4112519999999,92061.05439918528
1221.74564,96400.79624913358
1209.340352,100734.54248259656
1197.187859,105110.0119265372
1185.28092,109482.60239343977
1173.612564,113816.91350081154
1162.1760800000002,118178.17494808012
1150.9650060000001,122526.24384516366
1139.973115,126921.43141423176
1129.194406,131362.08406190155
1118.623093,135643.42825709702
1108.253594,140059.94420326152
1098.0805269999998,144529.69050552382
1088.098695,148799.2784762551
1078.303081,153162.94375511867
1068.688841,157598.3348352368
1059.251295,162041.06525002458
1049.9859199999999,166603.4599239626
1040.8883449999998,171680.89832690134
1031.9543429999999,176832.07283057433
1023.1798259999999,182657.51052245608
1014.5608390000001,188967.90752723807
1006.0935529999999,195769.65035519245
997.774265,203387.8578883105
989.5993858999999,211338.61501247302
981.5654412999999,219958.87831028824
973.6690651,229038.5065836232
965.9069952,238667.91729657442
958.2760697000001,248130.37736895907
950.7732231000001,257939.18317686315
943.3954827,267551.69612218713
936.1399648,277373.7844026769
929.0038716,287205.35912304296
921.9844879000001,296401.765136767
915.0791782,305477.20960151585
908.2853836000002,314553.0315236066
901.6006193,323622.2475217746
895.0224714,332735.3780869556
888.548595,342015.0134694223
882.1767113,351817.58068998
875.9046055,362547.2178989157
869.7301242999998,373916.54685545276
863.6511742999999,386837.38995155954
857.6657193,401396.19653280155
851.7717787,417657.7038078962
845.9674256000001,435902.5957483701
840.2507849,457286.1966985227
834.6200316000001,480782.1406256043
829.0733892000001,508711.85285991075
823.6091279,540981.427915676
818.2255633999999,576557.1330601637
812.9210552000001,616073.5896620612
807.694005,659184.8029451111
802.5428559,707181.1959454601
797.4660904,757650.8593594702
792.4622299,812397.8925463441
787.5298327,869697.9971235017
782.6674933999999,936957.7740752681
777.8738417999999,1010103.5995371627
773.1475413,1096519.9083392606
768.4872882999999,1197296.1789675902
763.8918112000001,1319509.6382166115
759.3598692,1466008.5455983498
754.8902515999999,1644106.377407892
750.4817767999999,1850099.4920821625
746.1332914,2091829.7819449329
741.8436694000001,2360096.486226472
737.6118116,2651645.924482659
733.4366444,2967720.8397829267
729.3171195,3300634.77889564
725.2522127999999,3646002.5141445627
721.2409241,3986937.4848533
717.282276,4318655.533324443
713.3753136,4634273.114236119
709.5191037000001,4925309.891430247
705.7127343,5184915.574887635
701.9553139,5411996.8313643085
698.2459709,5603803.989136765
694.5838534,5748246.940173728
690.9681281000001,5857379.4409605125
687.3979803,5934258.441113374
683.8726131,5988126.585280754
680.3912472999999,6019886.1515270425
676.9531202000001,6035954.012459672
673.557486,6039495.158968309
670.2036149,6043493.584530627
666.8907926,6041695.703659595
663.6183202999999,6039190.176453417
660.3855139,6043042.005768837
657.1917038,6040500.870112789
654.0362346,6040803.862310219
650.9184646000001,6041559.89597168
647.8377654,6044614.028610221
644.7935217999999,6040080.399202181
641.7851312999999,6041445.660218166
638.8120038,6039589.668132309
635.8735614,6042682.630375062
632.9692378999999,6040014.726856456
630.0984786,6041371.52853199
627.2607402000001,6043343.01667634
624.4554901,6041599.255861882
621.6822068,6042061.42643357
618.940379,6040514.389653512
616.2295054,6041646.864869459
613.549095,6041183.829005084
610.8986664,6041582.091504
608.2777476,6041755.312939694
605.6858758999999,6041614.814959245
603.1225977000001,6041351.63919744
600.5874682,6041064.895953165
598.0800512,6041456.089775736
595.5999188999999,6041625.953381307
593.1466518,6041730.345991356
590.7198384999999,6040823.287909143
588.3190752,6041500.494027583
585.943966,6041335.608391459
583.5941226,6041446.3217538325
581.2691637,6041377.629261697
578.9687155,6041191.582521832
576.692411,6041824.13506625
574.4398902,6041518.013998836
572.2107997,6041751.369144007
570.0047927,6041752.720975462
567.8215287,6041360.802538252
565.6606737000001,6041254.671112859
563.5218996,6041385.731165758
561.4048845,6041941.796366705
559.3093121,6041432.430602618
557.2348721,6041403.510165125
555.1812597,6041378.945709192
553.1481756000001,6041709.544844302
551.1353259,6040977.984083382
549.1424218999999,6041217.331500611
547.1691801,6041454.590234483
545.2153222000001,6041230.895790243
543.2805745000001,6041330.0457015
541.3646685,6041207.639662524
539.46734,6041335.945953247
537.5883299,6041499.558414115
535.7273833,6041142.047406603
533.8842498,6041088.385721039
532.0586836,6041195.9877713835
530.2504428000001,6041739.5811332725
528.45929,6041372.810789308
526.6849915,6041314.436744322
524.927318,6041526.1600662125
523.186044,6041245.878631709
521.4609475999999,6041072.853530328
519.7518110000001,6041341.583770549
518.0584200000001,6041098.024008027
516.3805639,6041562.397988476
514.7180356,6041414.77697396
513.0706316000001,6041548.149145217
511.43815149999995,6041350.488859598
509.82039860000003,6041448.211877627
508.2171791999999,6040935.542939948
506.628303,6041539.813405537
505.05358269999994,6041559.411276148
503.4928341,6041417.047812843
501.9458762,6041171.54589969
500.41253059999997,6041469.3330905875
498.8926222,6041190.953004281
497.3859785,6041700.655303001
495.89242989999997,6041293.8158303965
494.4118094,6041545.858896747
492.943953,6041023.276798188
491.488699,6041241.479837231
490.04588839999997,6041061.626469121
488.6153648,6041604.459124518
487.19697429999997,6041540.563032922
485.7905654,6040741.939758894
484.39598889999996,6041735.891544829
483.01309800000007,6041780.922831332
481.64174840000004,6041488.714435324
480.28179789999996,6041309.812897313
478.93310639999993,6041738.504873957
477.59553619999997,6041810.77189541
476.2689517,6041402.828396866
474.9532192,6041791.142187439
473.6482074,6041531.45456489
472.35378679999997,6041268.142301613
471.06982989999995,6041203.3298235675
469.79621110000005,6041378.126967693
468.53280700000005,6041550.322459188
467.2794956999999,6041058.550483674
466.0361575,6041520.543128617
464.80267410000005,6041356.057766704
463.5789295,6041163.338614978
462.364809,6041704.512456861
461.1601998,6041579.681832718
459.9649909,6040872.430181447
458.7790727,6041358.467538753
457.6023374,6039046.163493457
456.4346788,6032036.726717417
455.2759921,6017661.779665501
454.12617439999997,5994295.511895102
452.9851239,5958926.435423138
451.85274060000006,5908886.521454806
450.7289258,5842638.7525381725
449.6135822,5758181.088169578
448.5066141,5657404.758633292
447.407927,5543728.959220278
446.317428,5419923.445157429
445.23502520000005,5289217.286052514
444.1606283,5155027.911859403
443.0941482,5019332.203454385
442.03549699999996,4886120.519276648
440.9845882,4757113.393159047
439.9413364,4633126.424737594
438.9056575,4513275.468397418
437.87746860000004,4397842.095228037
436.85668780000003,4286511.2353371885
435.8432345,4177575.5709901717
434.83702930000004,4072220.5740382895
433.83799369999997,3968850.429804638
432.84605039999997,3867431.506169647
431.8611232,3768313.1378295124
430.8831369,3670751.552285213
429.9120175,3576354.4589615487
428.94769169999995,3484348.8997071637
427.9900874,3394893.734607755
427.03913370000004,3308881.013043458
426.0947602,3225825.2695136145
425.1568978,3146163.3213869845
424.22547829999996,3069918.761123755
423.3004343,2997044.652922865
422.3816994,2927823.326224238
421.4692081,2861729.3224397376
420.56289569999996,2798924.8908196855
419.66269850000003,2738788.139357411
418.7685535,2681506.566800878
417.8803987,2625704.771001531
416.9981727,2571168.446213899
416.12181519999996,2517013.283748852
415.25126639999996,2462297.2028068393
414.38646760000006,2406469.346345917
413.5273605,2349395.498075344
412.673888,2290505.7768543838
411.8259934,2230511.715681255
410.9836208,2169351.6791913267
410.14671519999996,2108129.4902424784
409.3152221,2047251.878037308
408.48908789999996,1987239.076160093
407.66825960000006,1928870.5175888569
406.8526847,1871308.4585854828
406.0423117,1815570.726679162
405.2370896,1760739.4787276296
404.43696800000004,1706371.168384387
403.64189730000004,1652023.819472666
402.8518283,1597056.003094527
402.0667126,1540560.4748318824
401.28650239999996,1482853.2837948597
400.5111505,1422949.3326467439
399.7406101,1361378.325577125
398.9748353,1298205.5076070752
398.2137806,1233247.402369956
397.457401,1167483.8178149718
396.7056521,1101332.6885812518
395.9584903,1035140.1386949448
395.2158722,969496.7340372921
394.4777551,905151.7663601376
393.7440968,842428.1533502062
393.0148555,781907.052008837
392.2899901,723932.9902934151
391.56946,668539.8501714709
390.853225,616477.1794877201
390.1412452,567467.6510068232
389.43348169999996,521636.3989531168
388.7298955,479007.8791250608
388.03044839999995,439607.75637136615
387.3351027,403178.36624337005
386.6438209,369595.15740272414
385.95656610000003,338803.52940242033
385.2733019,310674.98119492445
384.5939922,284916.5327059082
383.9186014,261428.6806262084
383.2470943,240096.52741579985
382.5794362,220555.2772178916
381.9155926,202859.0594017661
381.2555296,186743.67979425698
380.59921360000004,172102.294994035
379.9466115,158786.1955622183
379.29769039999996,146754.51711807633
378.652418,135827.7922013584
378.0107622,126038.8461088744
377.37269130000004,117240.40271381105
376.73817410000004,109345.21862537449
376.1071796,102321.44762619244
375.47967719999997,96002.97902575447
374.8556368,90383.69349373622
374.2350283,85310.52837950716
373.6178223,80787.10751571771
373.0039896,76658.66241379338
372.3935012,72884.82308371762
371.78632860000005,69379.7674166005
371.1824436,66157.28313132726
370.5818182,63120.044421637824
369.98442489999996,60247.783241411526
369.39023629999997,57546.70853603751
368.7992255,54978.266410969365
368.2113658,52541.43520033973
367.6266307,50205.2363520393
367.0449943,47976.039597601855
366.4664305,45848.82408554707
365.89091410000003,43821.44427240132
365.3184196,41868.36347407149
364.7489221,40003.40430759209
364.18239689999996,38199.062799372856
363.61881960000005,36474.0617485235
363.058166,34794.353503842096
362.50041219999997,33195.168635995484
361.94553460000003,31650.498857575483
361.3935098,30170.876511542487
360.8443147,28746.091934465
360.29792630000003,27393.41395277582
359.754322,26089.3519507584
359.2134795,24849.07584452721
358.6753765,23659.812450436537
358.1399912,22519.513800430734
357.6073018,21436.44783051465
357.077287,20381.50638384388
356.5499253,19383.94143196167
356.025196,18409.33042500425
355.50307799999996,17496.422582437608
354.983551,16605.18792272002
354.4665945,15760.886226095998
353.95218839999995,14944.90699406798
353.4403127,14178.671397452781
352.9309478,13438.818015792287
352.42407410000004,12734.594433664392
351.9196722,12064.829913036185
351.4177232,11416.214312339609
350.91820789999997,10796.55063220934
350.4211078,10196.630619553089
349.9264043,9623.57719776126
349.434079,9063.001620876088
348.9441137,8515.463453540808
348.45649060000005,7991.190304721853
347.97119169999996,7501.275477295271
347.48819960000003,7028.020390062334
347.0074967,6576.4745030910935
346.5290657,6147.746538993307
346.0528897,5728.8390473238915
345.5789517,5335.038701870994
345.1072349,4952.675710117645
344.6377228,4586.501565215634
344.17039889999995,4226.193271936607
343.70524710000007,3882.7041392094593
343.24225110000003,3550.947616886624
342.7813952,3241.2049934483252
342.32266339999995,2938.5451682953117
341.8660403,2654.2400621095653
341.4115102,2384.771799701234
340.959058,2137.2562242708505
340.5086685,1910.243982136356
340.06032660000005,1700.1210539393876
339.6140175,1500.1319043621327
339.1697264,1324.4678315437288
338.7274388,1165.8427131654125
338.28714019999995,1021.897760072553
337.8488164,891.6374872925556
337.41245310000005,776.5190309789493
336.9780363,671.7849338800564
336.5455522,580.7044901380093
336.114987,498.9876486909171
335.686327,431.17580503225133
335.2595588,365.03440436314025
334.834669,305.07411427615887
334.4116443,266.1050621214352
333.9904716,222.15857527645332
333.57113799999996,188.3256986319044
333.1536305,156.52312384539357
332.73793639999997,126.10807636164695
332.32404310000004,105.54260174186686
331.91193799999996,83.56405199539284
331.5016088,65.91605179767775
331.0930432,49.582450974067775
330.6862289,37.72808736818093
330.281154,30.191645468503594
329.8778065,20.425071167903273
329.47617460000004,8.412089132474524
329.07624649999997,7.848288956869879
328.6780106,7.785390334909023
328.2814555,1.8875437500954533
327.88656960000003,1.9418138092522217
327.4933418,3.4048888286501495
327.1017607,-2.38955476409928
326.7118154,-2.5296385284765472
326.32349480000005,0.06682989564716756
325.93678789999996,-0.99118480436438
325.5516841,-1.3348991242438293
325.16817260000005,2.330373231259878
324.7862428,-4.017568314891852
324.40588419999995,2.505883708047608
324.0270864,-1.1052093287467897
323.649839,-2.8683349001973983
323.2741319,-0.0344706599617019
322.8999548,-1.05772066569002
322.5272977,0.5523046588705919
322.1561508,-0.07350391995595867
321.786504,2.23473769608068
321.4183476,-2.7192614260555548
321.0516719,1.5980948667109782
320.6864673,1.2404912325389852
320.3227243,1.4880006662708902
319.96043330000003,3.016459573157813
319.5995851,0.1432836698258937
319.2401704,-1.0648643540852916
318.8821799,0.4211473090320455
318.5256045,-2.401621014564855
318.1704352,-2.054237969806939
317.8166631,-0.17656246765423111
317.4642791,-6.578622015104456
317.1132746,1.0648831505914442
316.76364069999994,-1.0750646487936908
316.4153688,-3.210826861286077
316.06845039999996,-1.3583546492598841
315.72287689999996,1.4772114231909774
315.37863980000003,-0.8430783967982121
315.0357308,0.2956463014804817
314.6941415,1.016125993911884
314.3538639,5.532501234706109
314.0148896,-2.161336040818371
313.6772106,2.279996554180696
313.3408189,-1.529648696152374
313.00570639999995,1.8340198216119985
312.67186549999997,1.0354515958408197
312.33928810000003,1.841387553456027
312.0079665,2.238202217659929
311.6778931,3.638307149628806
311.34906010000003,1.0572189484835437
311.0214601,-4.318186385559982
310.6950856,-1.62818306799104
310.369929,1.7189857622136888
310.04598300000004,1.9045714563032237
309.7232403,2.357654731143477
309.4016935,-1.26750759423082
309.0813356,-0.9101241811233144
308.7621594,-4.3870078273990805
308.4441577,-1.3497576947350551
308.1273236,3.7968942496757103
307.8116501,1.7155182635533262
307.49713019999996,1.6533551272042974
307.18375710000004,2.8958705289518707
306.871524,0.3893075315430305
306.5604242,0.37833140609925775
306.2504509,-1.6377738553237915
