wave,flux
1817.164934,-2.365013775921157
1790.1022050000001,-4.043658163566066
1763.812741,4.2557496546960625
1738.2646949999998,17.448194257575437
1713.427949,49.11424008816081
1689.273995,192.2231965995768
1665.7758310000002,496.29313305679983
1642.907862,1025.0230366370927
1620.64581,1777.8364967036982
1598.9666300000001,2809.624197906533
1577.8484310000001,4157.762996078805
1557.270407,5819.533287859326
1537.212767,7805.028353201285
1517.65668,10037.377274743636
1498.5842089999999,12368.489437315644
1479.978265,14809.575302663923
1461.822555,17297.107862477147
1444.101535,19784.305608419483
1426.800368,22277.986361273262
1409.904887,24777.36653235465
1393.401553,27203.091970089918
1377.2774220000001,29611.962470436363
1361.520115,32048.469898498555
1346.117782,34496.55245229557
1331.059081,37023.79979571357
1316.3331449999998,39519.65063447016
1301.92956,42077.454142051516
1287.838342,44663.02577885595
1274.049912,47266.928537373235
1260.5550779999999,49947.15205960986
1247.345017,52631.425020357616
1234.4112519999999,55321.447387930195
1221.74564,58038.58362975611
1209.340352,60838.1979538782
1197.187859,63656.80775732322
1185.28092,66542.18682858856
1173.612564,69437.96105571222
1162.1760800000002,72423.31018863077
1150.9650060000001,75384.31569304131
1139.973115,78485.27852261973
1129.194406,81561.5268379849
1118.623093,84670.40894862282
1108.253594,87840.2415871465
1098.0805269999998,91056.10667449042
1088.098695,94393.27314504437
1078.303081,97694.94209770461
1068.688841,101073.49734090648
1059.251295,104698.30804958564
1049.9859199999999,108334.08093014102
1040.8883449999998,112319.43369040068
1031.9543429999999,116621.28951225811
1023.1798259999999,121145.14640209485
1014.5608390000001,126045.94142398649
1006.0935529999999,131408.9799190099
997.774265,137086.3390017945
989.5993858999999,143190.63498080513
981.5654412999999,149584.62723067324
973.6690651,156185.82945709964
965.9069952,162863.27965553672
958.2760697000001,169921.25248810512
950.7732231000001,176926.90085497155
943.3954827,183722.92869236573
936.1399648,190737.14042947502
929.0038716,197733.48947247397
921.9844879000001,204773.81029209608
915.0791782,211623.4381264514
908.2853836000002,218219.44796564587
901.6006193,225134.4863844913
895.0224714,232079.7126627361
888.548595,239387.97335731078
882.1767113,247248.5227124126
875.9046055,255490.3351496416
869.7301242999998,264303.6675556389
863.6511742999999,273864.5589429893
857.6657193,285023.7708969862
851.7717787,296586.63495982444
845.9674256000001,310209.5233650239
840.2507849,325252.6693531488
834.6200316000001,341467.27906159195
829.0733892000001,361242.0688791489
823.6091279,382056.9300229789
818.2255633999999,405533.32372098404
812.9210552000001,432235.3590486573
807.694005,460172.26885875437
802.5428559,490004.4499413454
797.4660904,522532.9745142103
792.4622299,556546.4118161015
787.5298327,593323.7575964706
782.6674933999999,634240.0019463528
777.8738417999999,680680.0823197473
773.1475413,735150.5746208936
768.4872882999999,799877.5416951226
763.8918112000001,877459.6238503589
759.3598692,970594.0928348815
754.8902515999999,1081900.618119047
750.4817767999999,1213075.9082593506
746.1332914,1362581.3765937863
741.8436694000001,1527939.292569184
737.6118116,1709100.367505799
733.4366444,1901932.1732443888
729.3171195,2102525.5148910633
725.2522127999999,2307498.2757846937
721.2409241,2519517.0698756967
717.282276,2740588.671161286
713.3753136,2985736.7653832575
709.5191037000001,3250133.551667213
705.7127343,3532893.521513516
701.9553139,3835219.5771096232
698.2459709,4152274.938882244
694.5838534,4475592.485548497
690.9681281000001,4796661.7881924715
687.3979803,5100233.485116826
683.8726131,5364631.892630438
680.3912472999999,5578550.873433479
676.9531202000001,5746315.483585719
673.557486,5871421.605048222
670.2036149,5958675.802684944
666.8907926,6011655.842427215
663.6183202999999,6035877.077048153
660.3855139,6041255.088206593
657.1917038,6042794.042178188
654.0362346,6040272.488939473
650.9184646000001,6041752.804128245
647.8377654,6042264.818489509
644.7935217999999,6039759.85996905
641.7851312999999,6041844.889403505
638.8120038,6041458.843292243
635.8735614,6041578.161116622
632.9692378999999,6041151.198186785
630.0984786,6042793.404029443
627.2607402000001,6041763.109843419
624.4554901,6040362.399101303
621.6822068,6043129.951313559
618.940379,6041868.247196016
616.2295054,6041334.522139423
613.549095,6041106.995216807
610.8986664,6041226.228338976
608.2777476,6041735.630299787
605.6858758999999,6041522.469274515
603.1225977000001,6041447.845531357
600.5874682,6041396.080522972
598.0800512,6041705.7111626165
595.5999188999999,6040965.713818272
593.1466518,6041485.4084712425
590.7198384999999,6041365.266633232
588.3190752,6041622.13635944
585.943966,6041108.7573213065
583.5941226,6041448.738455116
581.2691637,6041173.621357556
578.9687155,6041477.204202668
576.692411,6041355.84360565
574.4398902,6040908.759636982
572.2107997,6041357.794424537
570.0047927,6041785.590780805
567.8215287,6041389.541259917
565.6606737000001,6041525.2497458765
563.5218996,6040853.411525921
561.4048845,6041419.838231455
559.3093121,6041462.3746212125
557.2348721,6041680.347649273
555.1812597,6041379.085842352
553.1481756000001,6041634.057355199
551.1353259,6041624.963315861
549.1424218999999,6041556.847507277
547.1691801,6041155.1087387735
545.2153222000001,6041206.3887092685
543.2805745000001,6041701.661845967
541.3646685,6041704.7620932115
539.46734,6040927.4210462235
537.5883299,6041318.383859867
535.7273833,6041537.4734979365
533.8842498,6041625.511849036
532.0586836,6041059.52277457
530.2504428000001,6041789.788603026
528.45929,6041242.705755012
526.6849915,6041848.196598349
524.927318,6041639.006028432
523.186044,6041009.521497767
521.4609475999999,6041488.606950982
519.7518110000001,6041408.1941516735
518.0584200000001,6041274.444373943
516.3805639,6040974.36543259
514.7180356,6041310.699961905
513.0706316000001,6041698.426698811
511.43815149999995,6041009.528828708
509.82039860000003,6041171.087120601
508.2171791999999,6041735.37010278
506.628303,6041227.109340683
505.05358269999994,6041228.3354117125
503.4928341,6041252.9734429475
501.9458762,6040792.3073954815
500.41253059999997,6041292.708561122
498.8926222,6041543.320888469
497.3859785,6041077.086009633
495.89242989999997,6041353.021318803
494.4118094,6041513.373164157
492.943953,6041360.019493181
491.488699,6041103.404735329
490.04588839999997,6040954.911163823
488.6153648,6041479.252719938
487.19697429999997,6041455.986549085
485.7905654,6041181.52036105
484.39598889999996,6041327.395663078
483.01309800000007,6041470.742390977
481.64174840000004,6041611.442833426
480.28179789999996,6041270.176393038
478.93310639999993,6041071.152942635
477.59553619999997,6041544.83359344
476.2689517,6041425.808315137
474.9532192,6041271.509576183
473.6482074,6041224.637167683
472.35378679999997,6041708.634660958
471.06982989999995,6041441.105841309
469.79621110000005,6041586.37412543
468.53280700000005,6041453.340923701
467.2794956999999,6041335.579709487
466.0361575,6041318.858374886
464.80267410000005,6041196.325466853
463.5789295,6041746.073340849
462.364809,6041265.176332568
461.1601998,6041644.271896945
459.9649909,6041263.0612087175
458.7790727,6041141.919155003
457.6023374,6041792.36748742
456.4346788,6041714.76061761
455.2759921,6041516.38720211
454.12617439999997,6041454.145170191
452.9851239,6041495.081996515
451.85274060000006,6041498.088027697
450.7289258,6041059.7016923
449.6135822,6041451.636296888
448.5066141,6041670.65111993
447.407927,6041510.963398866
446.317428,6040708.273696076
445.23502520000005,6041422.418382825
444.1606283,6041427.131969851
443.0941482,6041733.962775488
442.03549699999996,6041360.885307191
440.9845882,6041715.6566579435
439.9413364,6041562.1423112685
438.9056575,6042102.957760931
437.87746860000004,6041815.692376051
436.85668780000003,6040732.962152623
435.8432345,6041536.2637568675
434.83702930000004,6041694.321126244
433.83799369999997,6041604.124122713
432.84605039999997,6041913.208145677
431.8611232,6041362.403779626
430.8831369,6041265.320768613
429.9120175,6041492.867737247
428.94769169999995,6041871.615713312
427.9900874,6041484.9846495865
427.03913370000004,6041770.768773374
426.0947602,6041462.430781948
425.1568978,6041406.658310041
424.22547829999996,6041696.04231423
423.3004343,6041564.210365548
422.3816994,6041492.347709546
421.4692081,6041191.407023463
420.56289569999996,6041573.33012909
419.66269850000003,6041827.803211925
418.7685535,6041272.00540114
417.8803987,6040617.958121028
416.9981727,6037032.528557211
416.12181519999996,6026737.335249975
415.25126639999996,6008963.044665286
414.38646760000006,5980103.468964559
413.5273605,5938953.211240361
412.673888,5883098.2790931985
411.8259934,5811729.850400186
410.9836208,5722701.319068586
410.14671519999996,5620602.7929259315
409.3152221,5508700.731368834
408.48908789999996,5389179.389842652
407.66825960000006,5264764.282411269
406.8526847,5137044.095223945
406.0423117,5007136.436443895
405.2370896,4877322.486115835
404.43696800000004,4747578.5249949135
403.64189730000004,4616990.269883863
402.8518283,4484737.207079909
402.0667126,4350307.553730366
401.28650239999996,4213420.98951309
400.5111505,4074865.9595853915
399.7406101,3935617.7734804507
398.9748353,3795899.6996940887
398.2137806,3656433.9581856737
397.457401,3518074.552797316
396.7056521,3382309.7614722024
395.9584903,3248558.433276036
395.2158722,3118061.583379999
394.4777551,2990646.328042676
393.7440968,2866571.3425654364
393.0148555,2745527.384750212
392.2899901,2626993.081973217
391.56946,2511174.5267846854
390.853225,2398282.823177819
390.1412452,2287150.851588791
389.43348169999996,2178406.5986754964
388.7298955,2071616.8266906391
388.03044839999995,1966765.561255185
387.3351027,1864373.4483721831
386.6438209,1764105.6171630332
385.95656610000003,1665809.5711244415
385.2733019,1569886.0995626303
384.5939922,1475834.4109129019
383.9186014,1383618.4995745306
383.2470943,1293322.7734270743
382.5794362,1204433.7871158791
381.9155926,1117278.387770212
381.2555296,1031893.178915896
380.59921360000004,948441.3483341759
379.9466115,867683.5810136894
379.29769039999996,789568.6358082144
378.652418,715311.2181391524
378.0107622,645267.4657464083
377.37269130000004,580256.8121782899
376.73817410000004,520760.56014112436
376.1071796,467032.0259023078
375.47967719999997,419162.28777323203
374.8556368,377193.03581569344
374.2350283,340727.7082843749
373.6178223,309528.4173596572
373.0039896,282850.07058073103
372.3935012,260266.94643432577
371.78632860000005,241112.77517334852
371.1824436,224703.0446223665
370.5818182,210724.46123018747
369.98442489999996,198639.64770076508
369.39023629999997,188037.08588211355
368.7992255,178674.54718735605
368.2113658,170228.4747556702
367.6266307,162535.25620134472
367.0449943,155482.9025251216
366.4664305,148948.6775205459
365.89091410000003,142882.39382451345
365.3184196,137183.48157135665
364.7489221,131777.3340988277
364.18239689999996,126662.96331713955
363.61881960000005,121758.43250614314
363.058166,117032.56363698847
362.50041219999997,112495.48810588136
361.94553460000003,108129.09109901838
361.3935098,103878.30346957262
360.8443147,99761.77163141523
360.29792630000003,95755.25104120854
359.754322,91878.64571671108
359.2134795,88074.94542800107
358.6753765,84361.48606473216
358.1399912,80744.088131816
357.6073018,77195.0015942912
357.077287,73732.55202384478
356.5499253,70355.06252779074
356.025196,67064.86523861041
355.50307799999996,63841.810474338425
354.983551,60745.53277585898
354.4665945,57728.07927389375
353.95218839999995,54837.65069577586
353.4403127,52057.58218955396
352.9309478,49389.714133672336
352.42407410000004,46837.28278261695
351.9196722,44382.64496976735
351.4177232,42083.68539556639
350.91820789999997,39871.507116985566
350.4211078,37774.26325208699
349.9264043,35779.10915103317
349.434079,33883.107572226516
348.9441137,32082.802751083
348.45649060000005,30380.227088895048
347.97119169999996,28751.76919296517
347.48819960000003,27187.71117685926
347.0074967,25709.321035830988
346.5290657,24273.587257597905
346.0528897,22904.987128903653
345.5789517,21583.87733302097
345.1072349,20316.438066777577
344.6377228,19093.56917110419
344.17039889999995,17920.584482978717
343.70524710000007,16792.7837028363
343.24225110000003,15716.825270497466
342.7813952,14678.500335810928
342.32266339999995,13711.72943518678
341.8660403,12773.368598226929
341.4115102,11903.801008243183
340.959058,11066.014935823045
340.5086685,10281.130215230949
340.06032660000005,9540.406808100699
339.6140175,8850.571491758596
339.1697264,8184.130575154992
338.7274388,7551.1890320734055
338.28714019999995,6965.243148816155
337.8488164,6396.413833270397
337.41245310000005,5868.197271067803
336.9780363,5358.442057893914
336.5455522,4886.198888269926
336.114987,4429.15818674185
335.686327,4012.6243694103887
335.2595588,3620.009467617712
334.834669,3256.417240592325
334.4116443,2903.0991902383466
333.9904716,2584.929463037958
333.57113799999996,2292.057153096717
333.1536305,2011.6393640405515
332.73793639999997,1745.6071966082136
332.32404310000004,1501.3627116414457
331.91193799999996,1273.29245144811
331.5016088,1058.239153610197
331.0930432,866.9976717782129
330.6862289,694.4731835227617
330.281154,536.5441085198546
329.8778065,405.9977322274289
329.47617460000004,287.37523053218564
329.07624649999997,201.3232764632883
328.6780106,127.92889313403748
328.2814555,79.16524341259598
327.88656960000003,47.996748620989685
327.4933418,19.852476348181945
327.1017607,6.985915104799687
326.7118154,6.088940588686285
326.32349480000005,-1.040048308968287
325.93678789999996,-0.3220994142170989
325.5516841,-1.9090870908777475
325.16817260000005,0.9389214769349084
324.7862428,3.059465669314241
324.40588419999995,-2.017879280581019
324.0270864,-3.4091783796711814
323.649839,-5.023760843507215
323.2741319,-3.7213184629627465
322.8999548,-0.4335613107435548
322.5272977,2.826530489705809
322.1561508,-2.927949520665522
321.786504,-3.2774133872594846
321.4183476,0.615554153253733
321.0516719,-0.060992861587747735
320.6864673,-3.5723891442182487
320.3227243,1.1204666191523331
319.96043330000003,-3.919243605156804
319.5995851,-3.5932583252281685
319.2401704,0.01382509449105315
318.8821799,-3.4166366665119
318.5256045,-0.4020341646374993
318.1704352,1.158978552961194
317.8166631,1.9002139556423363
317.4642791,0.7209888560710304
317.1132746,-0.05975598543172547
316.76364069999994,2.1899127217829144
316.4153688,0.5224002252942792
316.06845039999996,0.9249854234631036
315.72287689999996,1.811496513693934
315.37863980000003,-1.474023862784949
315.0357308,2.368596875426866
314.6941415,-2.0286350840186103
314.3538639,-1.4374249124776122
314.0148896,-3.2061611995495416
313.6772106,0.7586166146758007
313.3408189,1.0066007185393362
313.00570639999995,0.10980110044516377
312.67186549999997,-0.6704791743319369
312.33928810000003,-2.5444401812260757
312.0079665,-2.8858349153660905
311.6778931,-0.60059881584082
311.34906010000003,2.096975210177212
311.0214601,-0.4268628550183525
310.6950856,1.7967483540332323
310.369929,-2.300670724301126
310.04598300000004,1.51765385382467
309.7232403,1.6451768598199707
309.4016935,-4.640562012097872
309.0813356,-2.9192857683549867
308.7621594,-2.5134745670425014
308.4441577,-6.1664540519073725
308.1273236,4.2238199100589515
307.8116501,0.39117847552439455
307.49713019999996,-0.316361957133672
307.18375710000004,0.7652332761281522
306.871524,2.7887981253895333
306.5604242,2.2634584892508003
306.2504509,1.0349481157522311
