wave,flux
1817.164934,-6.338958611124473
1790.1022050000001,2.5638539208093825
1763.812741,0.7135941171616977
1738.2646949999998,17.150436390180694
1713.427949,116.56808677208326
1689.273995,366.70597282057184
1665.7758310000002,917.1178831900937
1642.907862,1810.6507659011795
1620.64581,3113.0706915864453
1598.9666300000001,4961.300713443285
1577.8484310000001,7315.9555190606625
1557.270407,10300.871758361689
1537.212767,13900.599742017745
1517.65668,17960.559520052757
1498.5842089999999,22345.16507022503
1479.978265,26952.77294887602
1461.822555,31734.539925711637
1444.101535,36595.95741698905
1426.800368,41497.479802656926
1409.904887,46322.468954765216
1393.401553,51119.95973918214
1377.2774220000001,55816.84229802302
1361.520115,60530.170965173485
1346.117782,65263.679530564856
1331.059081,70016.73507260585
1316.3331449999998,74769.07136471686
1301.92956,79611.07815548618
1287.838342,84311.3974553008
1274.049912,89181.54329913108
1260.5550779999999,94023.59296897623
1247.345017,98778.57964469324
1234.4112519999999,103695.44140511252
1221.74564,108460.50218483472
1209.340352,113425.5216324748
1197.187859,118218.79122009686
1185.28092,123179.98946031975
1173.612564,128019.3710901402
1162.1760800000002,132889.5940030098
1150.9650060000001,137968.83333966346
1139.973115,142858.97402655374
1129.194406,147884.8282462154
1118.623093,152988.08988797505
1108.253594,157908.9927139108
1098.0805269999998,162726.70942563642
1088.098695,167849.35055168867
1078.303081,172760.86717170733
1068.688841,177660.53146290593
1059.251295,182876.69457515352
1049.9859199999999,188089.23879438825
1040.8883449999998,193450.34359883
1031.9543429999999,199377.72109104996
1023.1798259999999,205607.2597228045
1014.5608390000001,212396.11257487955
1006.0935529999999,219813.6276109054
997.774265,227993.9222748777
989.5993858999999,236647.37312116692
981.5654412999999,246011.09768817987
973.6690651,255774.1725388332
965.9069952,265728.4607052055
958.2760697000001,276070.3377449525
950.7732231000001,286801.2137884965
943.3954827,297055.0057568744
936.1399648,307489.61404295993
929.0038716,317325.69508481264
921.9844879000001,327430.6989306251
915.0791782,337097.0680706216
908.2853836000002,346588.9852024977
901.6006193,355990.9589292711
895.0224714,365685.68575968436
888.548595,375645.1991967225
882.1767113,385709.7237582064
875.9046055,397482.55665807007
869.7301242999998,409474.3711640104
863.6511742999999,423286.74427032616
857.6657193,438956.65250300494
851.7717787,456592.82652756217
845.9674256000001,476208.20235831494
840.2507849,500085.8935610965
834.6200316000001,526932.3701368825
829.0733892000001,556974.5922169742
823.6091279,591334.6391184161
818.2255633999999,630668.4317949556
812.9210552000001,674399.5676585631
807.694005,722939.552990751
802.5428559,774268.6598498651
797.4660904,829993.2150943298
792.4622299,893258.6817514205
787.5298327,957534.8819268402
782.6674933999999,1029590.5177518344
777.8738417999999,1113796.013068735
773.1475413,1210823.0852183865
768.4872882999999,1325057.7001704322
763.8918112000001,1462928.0179206803
759.3598692,1628779.0068297856
754.8902515999999,1825365.1217770816
750.4817767999999,2058179.6691319945
746.1332914,2326103.561581432
741.8436694000001,2624271.7158197104
737.6118116,2953122.3283105614
733.4366444,3306609.921836922
729.3171195,3677302.5719213164
725.2522127999999,4038450.3429036574
721.2409241,4396194.516126734
717.282276,4726800.774878523
713.3753136,5030069.441120816
709.5191037000001,5291749.783138718
705.7127343,5514588.293795067
701.9553139,5688307.520993968
698.2459709,5821266.89928413
694.5838534,5911331.924635736
690.9681281000001,5972421.191077721
687.3979803,6011559.753544765
683.8726131,6032324.657072695
680.3912472999999,6040099.056770719
676.9531202000001,6038904.537383501
673.557486,6041785.871640652
670.2036149,6042112.151963288
666.8907926,6040199.610925303
663.6183202999999,6039658.502137901
660.3855139,6040761.588178498
657.1917038,6040187.141640693
654.0362346,6041996.8153665215
650.9184646000001,6041479.2680376675
647.8377654,6041113.761017191
644.7935217999999,6041573.739901312
641.7851312999999,6041218.238504425
638.8120038,6044030.311995078
635.8735614,6041960.461794799
632.9692378999999,6041399.847932646
630.0984786,6041057.073975247
627.2607402000001,6041096.841227313
624.4554901,6041700.183140214
621.6822068,6040261.621205647
618.940379,6040863.8138896525
616.2295054,6041036.267180317
613.549095,6040999.769607687
610.8986664,6041500.30422062
608.2777476,6041724.625729786
605.6858758999999,6041221.750562265
603.1225977000001,6041320.65396934
600.5874682,6041028.846547328
598.0800512,6041332.522827783
595.5999188999999,6041364.692518207
593.1466518,6041334.982926522
590.7198384999999,6041132.357693292
588.3190752,6041569.425119682
585.943966,6041915.076718577
583.5941226,6041351.027952229
581.2691637,6041500.127016805
578.9687155,6041220.474639392
576.692411,6041526.9158579735
574.4398902,6041768.539735207
572.2107997,6041382.676762719
570.0047927,6041203.178042351
567.8215287,6041017.301128083
565.6606737000001,6041838.255181788
563.5218996,6041506.186803472
561.4048845,6041571.338091967
559.3093121,6041181.604853111
557.2348721,6041638.13766604
555.1812597,6041685.497930024
553.1481756000001,6041767.799397139
551.1353259,6041247.195028327
549.1424218999999,6041452.2542022085
547.1691801,6041869.394212168
545.2153222000001,6041616.137341001
543.2805745000001,6041379.244022584
541.3646685,6041218.0409845775
539.46734,6041524.449066277
537.5883299,6041291.826016057
535.7273833,6041194.850716262
533.8842498,6041041.679430956
532.0586836,6041381.166948362
530.2504428000001,6041342.5821918575
528.45929,6041110.464926477
526.6849915,6041270.6366603365
524.927318,6041277.7901424235
523.186044,6041457.502904258
521.4609475999999,6041019.81181881
519.7518110000001,6041270.859755898
518.0584200000001,6041394.457399517
516.3805639,6041344.897606855
514.7180356,6041411.015085445
513.0706316000001,6041449.60352813
511.43815149999995,6041739.871322448
509.82039860000003,6041034.172551082
508.2171791999999,6041377.453643959
506.628303,6041021.450347497
505.05358269999994,6041465.512776245
503.4928341,6041485.714885282
501.9458762,6040984.029927432
500.41253059999997,6041641.311952773
498.8926222,6041309.452989273
497.3859785,6041466.079550824
495.89242989999997,6041497.765950317
494.4118094,6041600.563078877
492.943953,6041762.434043158
491.488699,6041020.860243882
490.04588839999997,6041211.164389881
488.6153648,6042027.837337261
487.19697429999997,6041133.696819271
485.7905654,6041545.092633697
484.39598889999996,6041441.68240198
483.01309800000007,6041626.840606937
481.64174840000004,6041776.714191765
480.28179789999996,6041241.362694811
478.93310639999993,6041418.625749745
477.59553619999997,6040943.28371573
476.2689517,6041163.355582292
474.9532192,6041197.452431175
473.6482074,6041473.505587024
472.35378679999997,6041378.876612684
471.06982989999995,6041275.682365865
469.79621110000005,6041603.639130303
468.53280700000005,6041181.982276757
467.2794956999999,6039303.740004413
466.0361575,6032305.640587092
464.80267410000005,6017155.291848529
463.5789295,5991685.170015583
462.364809,5953002.07107143
461.1601998,5898670.815256344
459.9649909,5826108.426045471
458.7790727,5732720.866186319
457.6023374,5621135.0783001315
456.4346788,5493853.645040312
455.2759921,5355660.476784467
454.12617439999997,5207557.463623555
452.9851239,5054076.052964399
451.85274060000006,4897779.903879327
450.7289258,4741416.49957142
449.6135822,4587322.6774586085
448.5066141,4437638.50790065
447.407927,4291372.449027787
446.317428,4149228.833852924
445.23502520000005,4011701.0306809084
444.1606283,3879079.849057422
443.0941482,3752092.785948966
442.03549699999996,3630638.0054978174
440.9845882,3514915.2879773043
439.9413364,3404478.94070198
438.9056575,3299281.1585656037
437.87746860000004,3198257.3769931267
436.85668780000003,3099708.6074653836
435.8432345,3003644.0178642864
434.83702930000004,2908511.019490652
433.83799369999997,2814336.0093547646
432.84605039999997,2720459.2982088854
431.8611232,2626911.371548886
430.8831369,2534077.3067981857
429.9120175,2443194.6521134055
428.94769169999995,2354779.9803646724
427.9900874,2270125.250013099
427.03913370000004,2189189.606802839
426.0947602,2113581.6218309933
425.1568978,2042667.5261428275
424.22547829999996,1976976.659296731
423.3004343,1916072.5970273884
422.3816994,1859993.527621764
421.4692081,1807889.7858542253
420.56289569999996,1759059.8060297363
419.66269850000003,1712887.1268275748
418.7685535,1668110.9863894354
417.8803987,1624691.5976323911
416.9981727,1581315.2085823843
416.12181519999996,1537951.8680748702
415.25126639999996,1493765.770134259
414.38646760000006,1448598.3999086341
413.5273605,1402786.1736295498
412.673888,1356093.7107135337
411.8259934,1308745.1302057002
410.9836208,1260977.4834924995
410.14671519999996,1213307.7848732513
409.3152221,1166000.1428174698
408.48908789999996,1119554.932177422
407.66825960000006,1074070.2900636436
406.8526847,1029768.8156704485
406.0423117,986415.3512147772
405.2370896,944328.7977559993
404.43696800000004,903240.7155932584
403.64189730000004,862825.8194958619
402.8518283,822949.6749673445
402.0667126,783554.7491310043
401.28650239999996,744295.7878323304
400.5111505,705303.9525186425
399.7406101,666142.8897904303
398.9748353,627114.0611040511
398.2137806,588124.2161872352
397.457401,549358.6874613558
396.7056521,510985.89954645815
395.9584903,473234.707923749
395.2158722,436393.9799728094
394.4777551,400796.09520844993
393.7440968,366760.35716355883
393.0148555,334770.2381983437
392.2899901,304763.80679529795
391.56946,277162.0354738639
390.853225,251989.6652102529
390.1412452,229196.2422812531
389.43348169999996,208772.4452707668
388.7298955,190593.7995682364
388.03044839999995,174397.10691244315
387.3351027,160017.9640141603
386.6438209,147245.43264649966
385.95656610000003,135992.7338818682
385.2733019,125979.77672806801
384.5939922,117028.11449832328
383.9186014,109051.26887457178
383.2470943,101875.85245025619
382.5794362,95365.64331003117
381.9155926,89496.00010197815
381.2555296,84113.08942331142
380.59921360000004,79171.54918272409
379.9466115,74594.78935001155
379.29769039999996,70363.25350740105
378.652418,66431.60276901387
378.0107622,62824.48880424259
377.37269130000004,59435.354944506
376.73817410000004,56285.49004770065
376.1071796,53394.80574806248
375.47967719999997,50705.43747076513
374.8556368,48197.034949211375
374.2350283,45826.54609654206
373.6178223,43636.64937316811
373.0039896,41538.66723389412
372.3935012,39561.29689453518
371.78632860000005,37664.043099917326
371.1824436,35854.08221869278
370.5818182,34109.030148392834
369.98442489999996,32443.644310578737
369.39023629999997,30842.12828669665
368.7992255,29311.636635289626
368.2113658,27845.190379157924
367.6266307,26453.79191694727
367.0449943,25123.921162876995
366.4664305,23877.06100554639
365.89091410000003,22667.04147647913
365.3184196,21520.329796229198
364.7489221,20443.62874338948
364.18239689999996,19395.800796468327
363.61881960000005,18395.2573208873
363.058166,17437.79752801765
362.50041219999997,16511.397206951107
361.94553460000003,15639.622462895632
361.3935098,14802.90910591153
360.8443147,13998.304323013634
360.29792630000003,13243.539207237878
359.754322,12522.767768592526
359.2134795,11844.611525416474
358.6753765,11213.63105165853
358.1399912,10627.29081383338
357.6073018,10066.580762412597
357.077287,9532.479054855236
356.5499253,9030.607383168292
356.025196,8553.127641898955
355.50307799999996,8101.28203446272
354.983551,7656.662446095905
354.4665945,7237.006291218676
353.95218839999995,6830.957923503528
353.4403127,6438.176192903893
352.9309478,6065.303412606936
352.42407410000004,5705.352158499706
351.9196722,5367.449994037729
351.4177232,5036.324263038339
350.91820789999997,4719.036941429246
350.4211078,4415.543858836017
349.9264043,4118.867535041802
349.434079,3842.841427487921
348.9441137,3571.294842968193
348.45649060000005,3309.934086127736
347.97119169999996,3063.4756647614067
347.48819960000003,2830.6912247574865
347.0074967,2602.7969538872944
346.5290657,2387.5806793132906
346.0528897,2193.578186864084
345.5789517,2002.300406947857
345.1072349,1827.3847375364346
344.6377228,1660.8978014183733
344.17039889999995,1502.8232739421587
343.70524710000007,1355.320224989318
343.24225110000003,1214.6191134102044
342.7813952,1089.4589777104939
342.32266339999995,963.0785338308388
341.8660403,841.1405695213043
341.4115102,735.0366540539688
340.959058,634.361895639319
340.5086685,546.8270249316079
340.06032660000005,465.8020065444737
339.6140175,393.5793985368627
339.1697264,333.599005377335
338.7274388,275.36144927464903
338.28714019999995,234.4426476279066
337.8488164,191.7554836576853
337.41245310000005,153.52702882853495
336.9780363,128.3514999750531
336.5455522,106.77809009182656
336.114987,91.15328735907083
335.686327,74.50759043456449
335.2595588,61.36644807392196
334.834669,54.74166560047711
334.4116443,48.87670895667764
333.9904716,42.844840752910535
333.57113799999996,38.077367855219094
333.1536305,24.27635560925914
332.73793639999997,19.816211238568453
332.32404310000004,18.421284594949707
331.91193799999996,13.82930735049043
331.5016088,10.960303880454106
331.0930432,10.6817189707014
330.6862289,5.187981876370701
330.281154,4.819024168873606
329.8778065,4.8389688724639255
329.47617460000004,3.216091728650716
329.07624649999997,3.1379405496141946
328.6780106,1.9167283507961903
328.2814555,0.1854135204161249
327.88656960000003,1.7243186093744474
327.4933418,0.482820346466657
327.1017607,-5.9234162884874175
326.7118154,0.185493131229148
326.32349480000005,-1.381539536886653
325.93678789999996,-3.3762304858593413
325.5516841,0.19654340749686305
325.16817260000005,-0.4934347818811637
324.7862428,2.8574597402780118
324.40588419999995,2.9141391629772504
324.0270864,-3.1538256412967116
323.649839,2.1784003097484197
323.2741319,1.897006121644817
322.8999548,2.3192428746592024
322.5272977,-1.7783075805485238
322.1561508,2.2726554226019715
321.786504,3.9921219526890814
321.4183476,0.6850235299586802
321.0516719,1.9029640099628704
320.6864673,-1.6976800649298474
320.3227243,3.6567742302657136
319.96043330000003,1.647737557994065
319.5995851,-4.436855501095233
319.2401704,4.6264997683641065
318.8821799,0.2281107884621253
318.5256045,4.3655415846117345
318.1704352,-0.7269042370123121
317.8166631,-1.7419525482458458
317.4642791,-2.3022204900254883
317.1132746,-1.8776453102039563
316.76364069999994,0.6826632580810807
316.4153688,-0.07653369172008362
316.06845039999996,2.042261137104858
315.72287689999996,3.5566986078387215
315.37863980000003,-1.6762012981301595
315.0357308,-1.3357664804395322
314.6941415,-3.419337572655916
314.3538639,0.8333930772082814
314.0148896,2.3853095207839767
313.6772106,-0.5590391823018694
313.3408189,-0.3709892349559902
313.00570639999995,0.18697235607127827
312.67186549999997,5.125299664181454
312.33928810000003,4.3207140507032165
312.0079665,1.743274979295688
311.6778931,-2.765121896367502
311.34906010000003,0.03374506698589494
311.0214601,-3.7347933432268574
310.6950856,-1.2870664387565711
310.369929,-1.8828211567840891
310.04598300000004,-3.0787284166597653
309.7232403,-0.3200470305866201
309.4016935,-5.056928089666271
309.0813356,-1.9211511342310459
308.7621594,0.00061865961010846
308.4441577,-2.995231515239032
308.1273236,0.33515297606409816
307.8116501,-2.7427978150487244
307.49713019999996,-0.9382405766583636
307.18375710000004,1.614815120791846
306.871524,3.327526865644705
306.5604242,-1.0559861445357823
306.2504509,-2.6656222349464733
