wave,flux
1817.164934,-9.364323896669237
1790.1022050000001,11.757156801042983
1763.812741,2.5114366279569413
1738.2646949999998,28.644984499870997
1713.427949,104.40140523145305
1689.273995,407.4835199086677
1665.7758310000002,1034.0492555689823
1642.907862,2091.34382468192
1620.64581,3637.7871556394734
1598.9666300000001,5704.375169902562
1577.8484310000001,8375.732897963859
1557.270407,11619.731243627411
1537.212767,15470.217371965451
1517.65668,19743.020002642814
1498.5842089999999,24107.737154572398
1479.978265,28658.899912687462
1461.822555,33177.235084681706
1444.101535,37704.14683243852
1426.800368,42158.36950387206
1409.904887,46370.99581548081
1393.401553,50495.547125347526
1377.2774220000001,54603.51376582303
1361.520115,58643.20407800495
1346.117782,62708.450681728486
1331.059081,66867.55334614753
1316.3331449999998,71101.95975745529
1301.92956,75317.69375894114
1287.838342,79607.32591790633
1274.049912,83883.42831415906
1260.5550779999999,88281.5666276798
1247.345017,92530.1596157584
1234.4112519999999,96827.85165807344
1221.74564,100992.16196188088
1209.340352,105263.84489398553
1197.187859,109395.87706692217
1185.28092,113443.82319884475
1173.612564,117583.53517498648
1162.1760800000002,121600.40853552012
1150.9650060000001,125819.96083826359
1139.973115,130072.7277706434
1129.194406,134385.1257826935
1118.623093,138691.89486200182
1108.253594,143135.0616134756
1098.0805269999998,147467.8339910383
1088.098695,152043.74065605208
1078.303081,156741.15339052878
1068.688841,161337.6239518963
1059.251295,166420.84400328455
1049.9859199999999,171545.69252394984
1040.8883449999998,177227.04131508394
1031.9543429999999,183211.2834725449
1023.1798259999999,190063.08975725475
1014.5608390000001,197332.90756852218
1006.0935529999999,205127.91126895158
997.774265,213600.6538864961
989.5993858999999,222741.30841715602
981.5654412999999,232164.6968258789
973.6690651,242115.0293515043
965.9069952,251968.4622815948
958.2760697000001,262389.26780418993
950.7732231000001,272399.0961971397
943.3954827,282359.79213623994
936.1399648,291859.5406410593
929.0038716,301751.4102781625
921.9844879000001,310946.6655395616
915.0791782,319878.85188659286
908.2853836000002,328743.3730441589
901.6006193,337482.7458350857
895.0224714,346723.27738133195
888.548595,355951.7137149213
882.1767113,366273.20999889297
875.9046055,377152.34491389815
869.7301242999998,389630.4350305869
863.6511742999999,403449.6036071816
857.6657193,419517.8467437652
851.7717787,437336.30466742185
845.9674256000001,458352.5988704235
840.2507849,483005.46635494
834.6200316000001,509632.91469695966
829.0733892000001,541797.9084875825
823.6091279,577091.784824834
818.2255633999999,618391.2414763082
812.9210552000001,661221.5410190519
807.694005,709017.9210547166
802.5428559,758788.5952465638
797.4660904,814269.3273026489
792.4622299,872470.5802069847
787.5298327,934510.5557046896
782.6674933999999,1002582.1489845824
777.8738417999999,1083460.6183917976
773.1475413,1178265.62692586
768.4872882999999,1293521.8449511728
763.8918112000001,1434968.9164842032
759.3598692,1603571.5298901158
754.8902515999999,1811621.9297457864
750.4817767999999,2051888.4713245
746.1332914,2328230.001610675
741.8436694000001,2633251.276065093
737.6118116,2965681.5954841133
733.4366444,3312770.854514572
729.3171195,3671803.439172662
725.2522127999999,4023827.7773247887
721.2409241,4367069.116353503
717.282276,4684205.399426365
713.3753136,4973497.608689421
709.5191037000001,5229968.08622295
705.7127343,5449976.983065939
701.9553139,5626740.045869438
698.2459709,5766602.587308455
694.5838534,5866220.233473336
690.9681281000001,5941498.003790688
687.3979803,5989245.888884127
683.8726131,6017193.584076487
680.3912472999999,6034922.674799014
676.9531202000001,6041042.348587616
673.557486,6042632.6728402125
670.2036149,6041163.222427257
666.8907926,6042470.557477187
663.6183202999999,6041253.435780872
660.3855139,6043291.851025202
657.1917038,6041877.153713256
654.0362346,6042184.829208986
650.9184646000001,6041525.5542608565
647.8377654,6043690.620713049
644.7935217999999,6041178.284956847
641.7851312999999,6041808.013027254
638.8120038,6041022.071676514
635.8735614,6041087.785060165
632.9692378999999,6040648.00110667
630.0984786,6040751.445264808
627.2607402000001,6041768.596542745
624.4554901,6041095.59736099
621.6822068,6041342.9063791875
618.940379,6040160.7794016935
616.2295054,6041501.243529309
613.549095,6041524.246722963
610.8986664,6041861.117324756
608.2777476,6041545.902904334
605.6858758999999,6041527.991753744
603.1225977000001,6041526.323920448
600.5874682,6041355.165114287
598.0800512,6041301.163970399
595.5999188999999,6041073.549801597
593.1466518,6041406.337913143
590.7198384999999,6041321.184754943
588.3190752,6040791.896716192
585.943966,6041386.485253509
583.5941226,6041530.513098419
581.2691637,6042037.360382365
578.9687155,6041591.4749268135
576.692411,6041610.076234232
574.4398902,6041378.610109458
572.2107997,6041209.6655524615
570.0047927,6041089.880149492
567.8215287,6041411.279394587
565.6606737000001,6041528.8244721815
563.5218996,6040972.229321018
561.4048845,6041983.548831723
559.3093121,6041540.01489336
557.2348721,6041294.994623758
555.1812597,6041808.772448492
553.1481756000001,6041643.099465238
551.1353259,6041470.31756729
549.1424218999999,6041558.970771281
547.1691801,6041414.028608953
545.2153222000001,6040759.783120322
543.2805745000001,6041217.167275137
541.3646685,6040721.6491556885
539.46734,6041003.953890224
537.5883299,6041118.393569372
535.7273833,6041220.8778022425
533.8842498,6041671.830863165
532.0586836,6041653.986847495
530.2504428000001,6041208.258963535
528.45929,6041280.377899557
526.6849915,6041312.035283909
524.927318,6041374.779908743
523.186044,6041268.483862205
521.4609475999999,6041585.3443713365
519.7518110000001,6040863.087325436
518.0584200000001,6041647.0092818625
516.3805639,6041105.06358751
514.7180356,6040911.149390647
513.0706316000001,6041702.731891078
511.43815149999995,6041542.710018334
509.82039860000003,6041602.903015343
508.2171791999999,6041346.877839409
506.628303,6041077.650730752
505.05358269999994,6041058.3943150025
503.4928341,6041402.835529356
501.9458762,6041256.432639033
500.41253059999997,6041571.137318205
498.8926222,6041239.244291759
497.3859785,6041316.354675641
495.89242989999997,6041634.080452691
494.4118094,6041096.569138097
492.943953,6041255.250512493
491.488699,6041597.434060683
490.04588839999997,6041582.548443885
488.6153648,6040906.429559544
487.19697429999997,6041062.196288804
485.7905654,6041497.716899305
484.39598889999996,6041011.7348201275
483.01309800000007,6041565.323411164
481.64174840000004,6041594.770316831
480.28179789999996,6041454.092167291
478.93310639999993,6041219.64409885
477.59553619999997,6041225.559750021
476.2689517,6041502.733931329
474.9532192,6041134.979286129
473.6482074,6041415.220661542
472.35378679999997,6041461.327505344
471.06982989999995,6041783.58396129
469.79621110000005,6041390.413044717
468.53280700000005,6040656.512192482
467.2794956999999,6037020.745372362
466.0361575,6028631.37363092
464.80267410000005,6013178.251019077
463.5789295,5988820.597938377
462.364809,5951937.810462709
461.1601998,5901582.712528667
459.9649909,5834763.102806385
458.7790727,5750409.071934791
457.6023374,5650273.776294878
456.4346788,5536034.959006282
455.2759921,5408256.069966481
454.12617439999997,5268868.098127021
452.9851239,5118626.775657135
451.85274060000006,4960226.430850661
450.7289258,4795021.889757542
449.6135822,4624290.353375178
448.5066141,4449315.738958713
447.407927,4271569.799130435
446.317428,4093800.237765385
445.23502520000005,3917247.1301891305
444.1606283,3746040.980555624
443.0941482,3581670.498489621
442.03549699999996,3426632.259341079
440.9845882,3283155.176406836
439.9413364,3151781.733275487
438.9056575,3032017.165613069
437.87746860000004,2923054.4485644433
436.85668780000003,2822762.2403842183
435.8432345,2729935.946440797
434.83702930000004,2641867.449582709
433.83799369999997,2557009.4828903764
432.84605039999997,2473603.016637364
431.8611232,2391533.09991748
430.8831369,2311190.0161434333
429.9120175,2233091.678019973
428.94769169999995,2158010.099956628
427.9900874,2087587.046279297
427.03913370000004,2022513.5748819062
426.0947602,1963871.989216773
425.1568978,1912024.0698543198
424.22547829999996,1866085.2215111232
423.3004343,1825188.483728587
422.3816994,1788619.2690926963
421.4692081,1755174.8700051182
420.56289569999996,1723200.2608086963
419.66269850000003,1692234.1173893088
418.7685535,1661781.5827586672
417.8803987,1631943.9156111141
416.9981727,1602770.3696590615
416.12181519999996,1575001.064408234
415.25126639999996,1549715.4380682968
414.38646760000006,1526825.9603145388
413.5273605,1507124.1523539966
412.673888,1490212.8831207985
411.8259934,1475795.7630729943
410.9836208,1462225.4552279215
410.14671519999996,1448751.1373081792
409.3152221,1433536.9659540725
408.48908789999996,1415519.8162886503
407.66825960000006,1392939.7110297042
406.8526847,1365162.824377459
406.0423117,1331715.2232790592
405.2370896,1292463.4487232636
404.43696800000004,1248166.3334797318
403.64189730000004,1199342.4072562559
402.8518283,1147020.6957669188
402.0667126,1092675.2990630914
401.28650239999996,1037094.2665097669
400.5111505,981705.0359286728
399.7406101,927274.286668724
398.9748353,874698.6555494984
398.2137806,824525.6419371325
397.457401,777141.559428395
396.7056521,732675.5489538496
395.9584903,691093.131919641
395.2158722,652317.7201596922
394.4777551,616182.8654796829
393.7440968,582284.1085446186
393.0148555,550399.8381736445
392.2899901,520426.8413577243
391.56946,492079.6660755271
390.853225,465387.50937176717
390.1412452,440359.2310014807
389.43348169999996,417247.5341513876
388.7298955,395965.480088555
388.03044839999995,376861.05569447967
387.3351027,360034.9034015336
386.6438209,345380.9928074822
385.95656610000003,332974.0752795297
385.2733019,322288.1113344461
384.5939922,313049.7497094278
383.9186014,304767.9470398129
383.2470943,297053.0479839546
382.5794362,289103.7116095293
381.9155926,280399.31906232546
381.2555296,270603.65791991056
380.59921360000004,259395.43641413786
379.9466115,246642.22810474547
379.29769039999996,232317.69576413571
378.652418,216776.6878963427
378.0107622,200227.13829425702
377.37269130000004,183080.2804467652
376.73817410000004,165950.6820717334
376.1071796,149210.10308485173
375.47967719999997,133310.09761863246
374.8556368,118507.72036224774
374.2350283,105094.50500341918
373.6178223,93224.70493952838
373.0039896,82900.78917666622
372.3935012,74043.02170560745
371.78632860000005,66548.61634775072
371.1824436,60265.74621279106
370.5818182,54970.85086064896
369.98442489999996,50525.250396320436
369.39023629999997,46767.39789261718
368.7992255,43544.27552911937
368.2113658,40734.63155605907
367.6266307,38296.21899293216
367.0449943,36116.08837771456
366.4664305,34167.8442588317
365.89091410000003,32429.92820232037
365.3184196,30833.616970492003
364.7489221,29399.716676089072
364.18239689999996,28063.183396555367
363.61881960000005,26823.68677331364
363.058166,25662.91806077105
362.50041219999997,24580.21607830506
361.94553460000003,23539.801123262972
361.3935098,22570.838709772168
360.8443147,21624.527027552333
360.29792630000003,20736.79415279024
359.754322,19907.84034547332
359.2134795,19115.40449836637
358.6753765,18362.15031416746
358.1399912,17633.470121377
357.6073018,16945.944511256115
357.077287,16278.56739941782
356.5499253,15622.980338368186
356.025196,14995.8671484982
355.50307799999996,14355.963797913291
354.983551,13736.234264550525
354.4665945,13119.864374007628
353.95218839999995,12523.561800792571
353.4403127,11931.253659764983
352.9309478,11359.44074067774
352.42407410000004,10807.574969420595
351.9196722,10275.562299825633
351.4177232,9775.62407148192
350.91820789999997,9303.343523754082
350.4211078,8845.774331525197
349.9264043,8412.700155193084
349.434079,7993.556694478638
348.9441137,7576.3280669212045
348.45649060000005,7172.0273900111015
347.97119169999996,6763.80205380777
347.48819960000003,6347.460362481527
347.0074967,5947.916140132094
346.5290657,5549.8433058570545
346.0528897,5166.339201438972
345.5789517,4797.192037516798
345.1072349,4455.100757029055
344.6377228,4135.520478094146
344.17039889999995,3844.5527181339367
343.70524710000007,3563.195081002933
343.24225110000003,3312.586707741352
342.7813952,3078.235570775047
342.32266339999995,2862.5413356647496
341.8660403,2664.519515941927
341.4115102,2478.2909253233843
340.959058,2311.031479833591
340.5086685,2157.890213282388
340.06032660000005,2004.2210984468452
339.6140175,1867.4152343769247
339.1697264,1743.5853651526654
338.7274388,1619.9916752677875
338.28714019999995,1502.6175459570263
337.8488164,1397.5078346513699
337.41245310000005,1293.9541005788326
336.9780363,1199.1389672305475
336.5455522,1111.416411530432
336.114987,1030.4743583925087
335.686327,960.3411591489627
335.2595588,886.503501385298
334.834669,830.9200344881664
334.4116443,775.4676573814372
333.9904716,730.2931762774272
333.57113799999996,681.2195683946417
333.1536305,640.41450087673
332.73793639999997,590.5883949327539
332.32404310000004,543.9469775387331
331.91193799999996,496.7218040556102
331.5016088,441.5885064891453
331.0930432,385.6240861072647
330.6862289,327.97414214953955
330.281154,270.3188172527124
329.8778065,219.82677562023704
329.47617460000004,171.19072140008353
329.07624649999997,127.98960130459743
328.6780106,83.52304643144583
328.2814555,58.10061779523326
327.88656960000003,33.45992379787785
327.4933418,20.82136983399502
327.1017607,10.856804342951763
326.7118154,4.6586531047527
326.32349480000005,6.3479253179867765
325.93678789999996,-4.367037366687206
325.5516841,1.2335226787320972
325.16817260000005,1.2272519942608062
324.7862428,0.398314425469412
324.40588419999995,0.26979388775632474
324.0270864,-2.5212264064176018
323.649839,1.8928941860387
323.2741319,-1.3578638054463292
322.8999548,0.0043250239936903365
322.5272977,1.5027538880521436
322.1561508,-0.7090123221240965
321.786504,1.1254333561635714
321.4183476,3.0422955234614264
321.0516719,-1.8805558133918057
320.6864673,0.0012945718449313005
320.3227243,1.2839142005559794
319.96043330000003,-1.8166767741969188
319.5995851,3.5550267523033035
319.2401704,-0.7170547620631685
318.8821799,2.304011783932333
318.5256045,-1.4031846793455078
318.1704352,-0.8403004743213038
317.8166631,1.1981966365189474
317.4642791,-4.153838932918422
317.1132746,0.6361659829677782
316.76364069999994,0.9100662512207284
316.4153688,-4.5408380095539975
316.06845039999996,2.3290786762702202
315.72287689999996,-0.982197651143102
315.37863980000003,0.4575708572176532
315.0357308,-1.666404152417453
314.6941415,-0.3317646592054258
314.3538639,-3.5669807766656763
314.0148896,-2.400263117685286
313.6772106,3.3630187641855382
313.3408189,0.9032301603859244
313.00570639999995,-1.0292343458078121
312.67186549999997,0.2706715038894105
312.33928810000003,0.15834102411672907
312.0079665,-1.2805503311821465
311.6778931,-0.897635745475182
311.34906010000003,3.5613458084998286
311.0214601,0.3674304030303116
310.6950856,-2.2961337990870216
310.369929,-0.2040859428288646
310.04598300000004,-0.4311409096919788
309.7232403,-1.8592620639972424
309.4016935,1.0910093181403862
309.0813356,-1.3877470966492726
308.7621594,-1.794562392606424
308.4441577,-2.1303640531042918
308.1273236,0.10878988838050514
307.8116501,1.035358549921811
307.49713019999996,-0.3040370057348645
307.18375710000004,-3.1392260975020814
306.871524,-0.04233589589291144
306.5604242,1.3049729635302658
306.2504509,-2.5167461928219894
