wave,flux
1817.164934,-10.864034811283107
1790.1022050000001,18.548090191170246
1763.812741,69.18557279830216
1738.2646949999998,29.992012082603143
1713.427949,62.06895338125216
1689.273995,2165.072821215901
1665.7758310000002,6808.4321468475255
1642.907862,14130.082905158868
1620.64581,23867.56294334152
1598.9666300000001,36356.057604447946
1577.8484310000001,51418.682761494696
1557.270407,69206.33768492541
1537.212767,89831.21754877485
1517.65668,109346.53469915039
1498.5842089999999,127114.86772057712
1479.978265,143063.65708926614
1461.822555,156990.6360853976
1444.101535,169097.86161817802
1426.800368,179116.5835265112
1409.904887,187025.93209214293
1393.401553,192956.38207781746
1377.2774220000001,198194.02926860735
1361.520115,203533.63997480983
1346.117782,208890.20558864862
1331.059081,214490.08303864137
1316.3331449999998,219859.59665643988
1301.92956,225727.6646191995
1287.838342,231630.69265429836
1274.049912,237592.05673902977
1260.5550779999999,243613.36142868124
1247.345017,249815.4517709793
1234.4112519999999,256031.78852316205
1221.74564,262302.16667601763
1209.340352,268170.98929146
1197.187859,274189.52432512096
1185.28092,279976.28612541896
1173.612564,285533.92999637057
1162.1760800000002,291055.6614651339
1150.9650060000001,296423.4275795762
1139.973115,301856.24524256785
1129.194406,306835.34783221304
1118.623093,311867.315935798
1108.253594,316509.9641277155
1098.0805269999998,321506.3495127982
1088.098695,326403.5865241103
1078.303081,331091.74769944826
1068.688841,336792.268945731
1059.251295,343707.66632919165
1049.9859199999999,352008.17325765436
1040.8883449999998,362631.6098844723
1031.9543429999999,376211.23206076655
1023.1798259999999,393021.0423936216
1014.5608390000001,412496.1873699327
1006.0935529999999,435163.0580376211
997.774265,460089.2435369468
989.5993858999999,487454.60751659906
981.5654412999999,515300.13737740857
973.6690651,543380.5180783834
965.9069952,570410.273693601
958.2760697000001,595376.1467769231
950.7732231000001,618008.2431923292
943.3954827,637250.2280271525
936.1399648,653572.9648084057
929.0038716,664827.5351284499
921.9844879000001,674556.5951810279
915.0791782,682116.7422014965
908.2853836000002,687262.0956695545
901.6006193,692412.0232821051
895.0224714,699708.1570188359
888.548595,709273.3749459961
882.1767113,724181.7132170241
875.9046055,745652.6087112415
869.7301242999998,774452.7918985956
863.6511742999999,814088.0466988733
857.6657193,862283.2509795298
851.7717787,925786.3736702548
845.9674256000001,1001559.4729114831
840.2507849,1096373.1074099976
834.6200316000001,1211141.6569259488
829.0733892000001,1340371.6950605288
823.6091279,1494611.8992748526
818.2255633999999,1662197.1571956768
812.9210552000001,1843399.6224165538
807.694005,2029292.039149508
802.5428559,2220725.6201163637
797.4660904,2414949.66504669
792.4622299,2607102.872292452
787.5298327,2810505.508711697
782.6674933999999,3040832.430484625
777.8738417999999,3289550.630829684
773.1475413,3562942.286915085
768.4872882999999,3856140.579195083
763.8918112000001,4168290.75155516
759.3598692,4497573.531706012
754.8902515999999,4829782.994830785
750.4817767999999,5140840.449998331
746.1332914,5400641.911219554
741.8436694000001,5610836.3519353
737.6118116,5780604.777358635
733.4366444,5903381.053839523
729.3171195,5981874.258281671
725.2522127999999,6022668.841527803
721.2409241,6041463.129347515
717.282276,6039838.638391948
713.3753136,6042974.6285327785
709.5191037000001,6041794.291383478
705.7127343,6039102.799227447
701.9553139,6040720.449665072
698.2459709,6042335.981952028
694.5838534,6040810.138183492
690.9681281000001,6042894.67652877
687.3979803,6040700.70464102
683.8726131,6039202.010301697
680.3912472999999,6040942.603294073
676.9531202000001,6040793.965468126
673.557486,6039219.895781478
670.2036149,6041051.559676117
666.8907926,6040780.376927291
663.6183202999999,6040846.773734283
660.3855139,6043276.387146037
657.1917038,6041862.874849603
654.0362346,6040462.826993465
650.9184646000001,6043444.932488565
647.8377654,6042459.454646843
644.7935217999999,6039393.772697376
641.7851312999999,6040113.243423592
638.8120038,6040939.716193003
635.8735614,6042856.672950598
632.9692378999999,6042091.433699301
630.0984786,6040939.371385843
627.2607402000001,6039023.43015074
624.4554901,6040158.064607292
621.6822068,6040679.972545101
618.940379,6041304.557376457
616.2295054,6041400.254519057
613.549095,6041398.482965905
610.8986664,6041367.642856185
608.2777476,6041349.072215081
605.6858758999999,6041485.47178536
603.1225977000001,6041287.028951605
600.5874682,6041170.815711284
598.0800512,6041871.506950771
595.5999188999999,6041331.467282284
593.1466518,6041460.62219628
590.7198384999999,6041554.711727683
588.3190752,6041338.053616232
585.943966,6041886.253423595
583.5941226,6041481.340953519
581.2691637,6042173.098725327
578.9687155,6041780.880423973
576.692411,6041390.764782939
574.4398902,6041551.609447704
572.2107997,6040998.549131346
570.0047927,6041726.584122762
567.8215287,6041193.734373407
565.6606737000001,6041418.372535886
563.5218996,6041190.877437453
561.4048845,6041347.653961772
559.3093121,6041268.8523094235
557.2348721,6041286.353023925
555.1812597,6041111.180163493
553.1481756000001,6041532.824277715
551.1353259,6041673.286966444
549.1424218999999,6041378.293674436
547.1691801,6041360.662643911
545.2153222000001,6041376.887049672
543.2805745000001,6041376.448116989
541.3646685,6041199.070822752
539.46734,6041795.619638378
537.5883299,6041007.338277738
535.7273833,6041743.745143265
533.8842498,6041512.227676266
532.0586836,6041383.40123113
530.2504428000001,6041317.710870748
528.45929,6041338.111802901
526.6849915,6041091.8682790175
524.927318,6040999.9331564475
523.186044,6041338.489296397
521.4609475999999,6041781.8038738165
519.7518110000001,6041536.949279014
518.0584200000001,6041497.291192522
516.3805639,6041539.265890176
514.7180356,6041329.572175702
513.0706316000001,6041206.36836092
511.43815149999995,6041628.8428397775
509.82039860000003,6041547.775517484
508.2171791999999,6041120.203262992
506.628303,6041086.094330113
505.05358269999994,6041051.272654687
503.4928341,6041477.42015578
501.9458762,6041470.019380421
500.41253059999997,6041125.612482785
498.8926222,6041075.935623815
497.3859785,6041763.521332597
495.89242989999997,6041244.818987526
494.4118094,6041592.832564216
492.943953,6041758.491898884
491.488699,6041297.845643458
490.04588839999997,6041538.234952858
488.6153648,6041831.3447741
487.19697429999997,6041436.53650796
485.7905654,6041951.804031363
484.39598889999996,6041526.704725308
483.01309800000007,6041721.484875149
481.64174840000004,6041180.617301799
480.28179789999996,6041246.251279892
478.93310639999993,6040866.484926084
477.59553619999997,6041144.690831677
476.2689517,6041400.836101428
474.9532192,6041447.5172735285
473.6482074,6041457.825916201
472.35378679999997,6041254.848071914
471.06982989999995,6041218.479292866
469.79621110000005,6038077.491098751
468.53280700000005,6027506.726071508
467.2794956999999,6010151.074197598
466.0361575,5984034.188830611
464.80267410000005,5949308.376221318
463.5789295,5904433.259222609
462.364809,5849953.302224639
461.1601998,5785141.200195023
459.9649909,5716206.756579202
458.7790727,5648161.988404506
457.6023374,5582559.241175413
456.4346788,5520511.131239628
455.2759921,5462271.02829683
454.12617439999997,5408272.856237318
452.9851239,5358771.302760654
451.85274060000006,5312414.259820163
450.7289258,5265990.991909954
449.6135822,5216767.0412332285
448.5066141,5163063.975244907
447.407927,5105495.798668543
446.317428,5043937.095415637
445.23502520000005,4979946.304261587
444.1606283,4916557.066911296
443.0941482,4855696.511250443
442.03549699999996,4801993.399992858
440.9845882,4757372.793791018
439.9413364,4726645.539099057
438.9056575,4710101.974724662
437.87746860000004,4708604.803579952
436.85668780000003,4721023.0769281
435.8432345,4744927.993577731
434.83702930000004,4775230.172265317
433.83799369999997,4806677.081280962
432.84605039999997,4833372.820847436
431.8611232,4849377.378035078
430.8831369,4850496.234518637
429.9120175,4832532.936177184
428.94769169999995,4793219.135853848
427.9900874,4733817.7268947065
427.03913370000004,4655261.484495022
426.0947602,4560079.0494428165
425.1568978,4453944.845970084
424.22547829999996,4340783.997845011
423.3004343,4224832.877158949
422.3816994,4110930.7720851474
421.4692081,4001346.2283348786
420.56289569999996,3898287.6074522655
419.66269850000003,3802127.8109451286
418.7685535,3713622.555215306
417.8803987,3630996.144081077
416.9981727,3553791.948910891
416.12181519999996,3479565.51934919
415.25126639999996,3408054.165106373
414.38646760000006,3337463.4598935023
413.5273605,3267599.8237623493
412.673888,3197841.3376171086
411.8259934,3127595.9402498114
410.9836208,3056605.2103009745
410.14671519999996,2985150.109814708
409.3152221,2911930.803399721
408.48908789999996,2837426.702887046
407.66825960000006,2760921.066566612
406.8526847,2681715.441334149
406.0423117,2600016.450853985
405.2370896,2515741.963812135
404.43696800000004,2428961.6579631367
403.64189730000004,2340741.9172049738
402.8518283,2250957.336814699
402.0667126,2160630.1137627903
401.28650239999996,2070837.109021056
400.5111505,1981585.4259026344
399.7406101,1893198.8634873226
398.9748353,1806101.454110201
398.2137806,1720518.9725946998
397.457401,1636635.564172882
396.7056521,1553994.0174006429
395.9584903,1472993.6789305944
395.2158722,1393567.4906220515
394.4777551,1315700.726139741
393.7440968,1240259.3031535107
393.0148555,1167211.2681285285
392.2899901,1096644.3505060906
391.56946,1028206.256086732
390.853225,962343.9870830678
390.1412452,898681.2306594638
389.43348169999996,836682.0259531235
388.7298955,776600.8795802628
388.03044839999995,717941.0647960666
387.3351027,660615.7427360581
386.6438209,604786.367832953
385.95656610000003,550651.7758827042
385.2733019,498694.9097159866
384.5939922,449377.5949774891
383.9186014,403214.25524494477
383.2470943,360375.50668699865
382.5794362,321543.3759802104
381.9155926,286858.578483345
381.2555296,256281.7441810482
380.59921360000004,229758.20823512622
379.9466115,207147.21537119485
379.29769039999996,188020.56894032247
378.652418,172062.3010693185
378.0107622,158776.55346782846
377.37269130000004,147730.38642304775
376.73817410000004,138524.2627411014
376.1071796,130722.29715872988
375.47967719999997,124008.03987871911
374.8556368,118160.05364400194
374.2350283,112905.17317633526
373.6178223,108161.74752810416
373.0039896,103678.3677752761
372.3935012,99511.14491488185
371.78632860000005,95492.57686475507
371.1824436,91672.5342185031
370.5818182,88051.29757505658
369.98442489999996,84560.56558711121
369.39023629999997,81199.50032446349
368.7992255,78012.05865865246
368.2113658,74959.44772040227
367.6266307,72064.05808863856
367.0449943,69298.55506967653
366.4664305,66642.71763135534
365.89091410000003,64095.80961899086
365.3184196,61676.19643549122
364.7489221,59349.329240218045
364.18239689999996,57113.76256420816
363.61881960000005,54966.05751315137
363.058166,52869.453109822636
362.50041219999997,50793.046762634636
361.94553460000003,48746.759797956925
361.3935098,46707.30864053835
360.8443147,44686.19249570825
360.29792630000003,42661.304976047126
359.754322,40651.425435135
359.2134795,38655.93163864126
358.6753765,36729.799622902494
358.1399912,34854.18262409402
357.6073018,33049.914094085514
357.077287,31341.779312047973
356.5499253,29704.047309571117
356.025196,28176.78651757272
355.50307799999996,26741.32125462446
354.983551,25358.43293967437
354.4665945,24068.14230599401
353.95218839999995,22841.618184049083
353.4403127,21667.90630010151
352.9309478,20557.101275210836
352.42407410000004,19493.83704865607
351.9196722,18469.49448471333
351.4177232,17482.290083588457
350.91820789999997,16556.846570035883
350.4211078,15666.90928961551
349.9264043,14803.27548659366
349.434079,13993.324264712774
348.9441137,13201.835065211068
348.45649060000005,12444.052089638428
347.97119169999996,11686.016515238334
347.48819960000003,10955.411365048569
347.0074967,10244.892533704151
346.5290657,9538.938950600508
346.0528897,8867.011926297375
345.5789517,8217.939665846287
345.1072349,7613.766589637764
344.6377228,7023.327227277775
344.17039889999995,6476.952045927025
343.70524710000007,5960.216494695633
343.24225110000003,5491.583464181673
342.7813952,5049.63461758877
342.32266339999995,4648.755420429295
341.8660403,4261.344721103696
341.4115102,3882.755013061897
340.959058,3544.8199649232793
340.5086685,3207.825189415459
340.06032660000005,2903.279715658577
339.6140175,2608.674221927139
339.1697264,2340.480302148012
338.7274388,2087.77944695506
338.28714019999995,1855.6051372862112
337.8488164,1646.4520730919298
337.41245310000005,1450.3929521041034
336.9780363,1270.3516187974635
336.5455522,1105.5714880884768
336.114987,945.575168622968
335.686327,799.4648899374774
335.2595588,665.8679317012575
334.834669,541.6912871300283
334.4116443,432.2482606019239
333.9904716,319.2355250230117
333.57113799999996,232.65010684837367
333.1536305,164.00886914105263
332.73793639999997,105.952316630269
332.32404310000004,66.61595427017636
331.91193799999996,30.275345843149715
331.5016088,14.507076887262842
331.0930432,2.030408177854122
330.6862289,-0.9212196035551592
330.281154,-1.0124719685666292
329.8778065,-3.7899012454655914
329.47617460000004,0.14118554345228654
329.07624649999997,-4.016359226516512
328.6780106,3.1206550068919188
328.2814555,-2.5743076917924417
327.88656960000003,2.8291863221729483
327.4933418,-2.1639151296705617
327.1017607,-4.109529345905391
326.7118154,2.9586613882112145
326.32349480000005,-0.9873938660524472
325.93678789999996,-2.572536841406985
325.5516841,-1.7214491426008485
325.16817260000005,-4.162411016787576
324.7862428,1.4992843342186544
324.40588419999995,0.659808486442609
324.0270864,-1.980130874131708
323.649839,3.085459897450193
323.2741319,-0.9380298277590324
322.8999548,-1.0681185293648536
322.5272977,2.560789684045344
322.1561508,2.3898720489850533
321.786504,1.0367402366517788
321.4183476,-0.00901117864701843
321.0516719,-4.1014619521769635
320.6864673,0.9962251879755172
320.3227243,-0.6674686707334595
319.96043330000003,-0.18044093195105096
319.5995851,2.303296175463408
319.2401704,-2.1523693514735003
318.8821799,-3.5311048790847024
318.5256045,1.4532032373387254
318.1704352,-1.1542952676793372
317.8166631,-0.8612228118259493
317.4642791,-0.5929087583912585
317.1132746,-2.1887143186760447
316.76364069999994,-3.149138754758792
316.4153688,-3.4175198845086365
316.06845039999996,1.6036062761312642
315.72287689999996,5.103135928515346
315.37863980000003,-2.5620878944881524
315.0357308,2.949325426426648
314.6941415,0.7637669965133265
314.3538639,-0.7668207449992855
314.0148896,0.8935694952162203
313.6772106,-7.117392249462013
313.3408189,-0.11693037047854025
313.00570639999995,-0.6180559740166625
312.67186549999997,0.4479822788120975
312.33928810000003,0.5593435297053948
312.0079665,-2.372944595465351
311.6778931,-3.9546164227520495
311.34906010000003,-2.541973243231829
311.0214601,1.5527535925991962
310.6950856,6.854295367333783
310.369929,-1.3364669201943664
310.04598300000004,-1.925729350804024
309.7232403,3.8358836211450567
309.4016935,-1.0507196704729624
309.0813356,-0.9766777680356528
308.7621594,-1.2650436640537148
308.4441577,2.2948638644477053
308.1273236,1.9810921471219811
307.8116501,2.1882839755541243
307.49713019999996,-0.20473262316769092
307.18375710000004,0.2810373154643321
306.871524,-0.2701200762444857
306.5604242,3.582236959464624
306.2504509,-2.9185651643011985
