wave,flux
1817.164934,2.1311508583236987
1790.1022050000001,-5.685775047458113
1763.812741,-0.5455008128030636
1738.2646949999998,8.352759992754544
1713.427949,34.42435789370955
1689.273995,117.10642345782348
1665.7758310000002,282.98964241043814
1642.907862,563.9176734035098
1620.64581,988.0262063578302
1598.9666300000001,1571.9048852156866
1577.8484310000001,2363.6421496312078
1557.270407,3347.3661600513647
1537.212767,4564.365917204629
1517.65668,5954.857428508354
1498.5842089999999,7485.415800125153
1479.978265,9117.20546607858
1461.822555,10869.111902391263
1444.101535,12653.21581542877
1426.800368,14501.613148246599
1409.904887,16399.919251271713
1393.401553,18270.899041346667
1377.2774220000001,20208.311765838323
1361.520115,22101.266546070634
1346.117782,24071.864868455952
1331.059081,26029.83478825897
1316.3331449999998,28026.57945534409
1301.92956,29995.90431740264
1287.838342,32048.001482919604
1274.049912,34133.493101441585
1260.5550779999999,36191.031558959214
1247.345017,38304.77480838472
1234.4112519999999,40488.90933547137
1221.74564,42636.67869517407
1209.340352,44904.8356535225
1197.187859,47183.62744117757
1185.28092,49486.31663256192
1173.612564,51876.65621741696
1162.1760800000002,54274.28143594328
1150.9650060000001,56742.6753648366
1139.973115,59189.764074628445
1129.194406,61786.978900739574
1118.623093,64428.16375976576
1108.253594,67067.14345490986
1098.0805269999998,69756.90333534672
1088.098695,72482.18337746468
1078.303081,75342.85508697166
1068.688841,78200.90508317231
1059.251295,81203.50950700934
1049.9859199999999,84286.52458010793
1040.8883449999998,87644.71382116142
1031.9543429999999,91112.77486555565
1023.1798259999999,94821.31840547551
1014.5608390000001,98760.47788469408
1006.0935529999999,103030.83259927564
997.774265,107608.64980128818
989.5993858999999,112409.79877899095
981.5654412999999,117513.97929902836
973.6690651,122785.21917037107
965.9069952,128221.93214676536
958.2760697000001,133963.08062619632
950.7732231000001,139789.6410134739
943.3954827,145699.9894672627
936.1399648,151658.80503592413
929.0038716,157828.0941967575
921.9844879000001,163947.17004430614
915.0791782,170179.07032725945
908.2853836000002,176303.4494986436
901.6006193,182653.38294642442
895.0224714,188857.5129407568
888.548595,195508.30094490433
882.1767113,202328.140468982
875.9046055,209283.39127551144
869.7301242999998,216919.23047148512
863.6511742999999,225095.2709246188
857.6657193,233613.75153585945
851.7717787,242797.86171403676
845.9674256000001,253214.16965942856
840.2507849,264533.1041113013
834.6200316000001,276954.2562528449
829.0733892000001,290883.9286661021
823.6091279,306397.6834296696
818.2255633999999,323518.71818954183
812.9210552000001,342828.01667013834
807.694005,362990.7139488294
802.5428559,385473.35796211346
797.4660904,408330.9571405631
792.4622299,434809.7724694199
787.5298327,462371.6401793374
782.6674933999999,492351.64804944384
777.8738417999999,525532.4792354818
773.1475413,564245.6621654155
768.4872882999999,608636.1612961146
763.8918112000001,659619.2356986001
759.3598692,723282.4129940841
754.8902515999999,796632.3735378125
750.4817767999999,882365.448616897
746.1332914,981052.6115935915
741.8436694000001,1091556.6282402012
737.6118116,1213356.6677615214
733.4366444,1347002.1772821362
729.3171195,1488934.3063069375
725.2522127999999,1636367.3491048568
721.2409241,1790488.3881924397
717.282276,1957116.7771000485
713.3753136,2136382.6730636368
709.5191037000001,2333661.248593804
705.7127343,2563694.407248856
701.9553139,2832279.140115906
698.2459709,3137254.0323580327
694.5838534,3469706.6440206864
690.9681281000001,3828312.321080669
687.3979803,4198731.798048553
683.8726131,4570480.303207207
680.3912472999999,4922956.300326872
676.9531202000001,5234694.333300622
673.557486,5489086.0646675965
670.2036149,5686921.498588937
666.8907926,5837822.038535393
663.6183202999999,5940251.094103724
660.3855139,6000177.733143309
657.1917038,6033870.400200599
654.0362346,6041494.95426373
650.9184646000001,6041005.360139611
647.8377654,6039849.997569512
644.7935217999999,6041315.728434449
641.7851312999999,6041276.454093625
638.8120038,6040679.840858264
635.8735614,6041054.038244446
632.9692378999999,6042103.364031091
630.0984786,6039372.426440995
627.2607402000001,6041216.813523917
624.4554901,6041196.361938241
621.6822068,6042703.33791152
618.940379,6040470.636506695
616.2295054,6041724.017017925
613.549095,6041543.156744513
610.8986664,6041595.5508924015
608.2777476,6041268.972597071
605.6858758999999,6041212.343385497
603.1225977000001,6041731.500741236
600.5874682,6041172.9645169685
598.0800512,6041931.536218613
595.5999188999999,6041643.427995972
593.1466518,6041281.956853305
590.7198384999999,6041520.253712563
588.3190752,6041283.858689435
585.943966,6041920.477131014
583.5941226,6041325.139330851
581.2691637,6041389.2135717785
578.9687155,6041149.639812827
576.692411,6041138.325701454
574.4398902,6041516.37656373
572.2107997,6041365.872064357
570.0047927,6041453.51881757
567.8215287,6041575.836452876
565.6606737000001,6041800.405860118
563.5218996,6041551.50228718
561.4048845,6041526.986789665
559.3093121,6041591.855542133
557.2348721,6041084.6921125185
555.1812597,6040971.264195267
553.1481756000001,6041725.291693431
551.1353259,6041273.177987508
549.1424218999999,6040943.058698487
547.1691801,6041711.727617528
545.2153222000001,6041566.450040955
543.2805745000001,6041010.235012496
541.3646685,6041498.0797353
539.46734,6041406.713152416
537.5883299,6041215.664035299
535.7273833,6041678.05066968
533.8842498,6041576.061662135
532.0586836,6041450.438780665
530.2504428000001,6041496.849220307
528.45929,6041172.269111669
526.6849915,6041529.816960329
524.927318,6041433.118477333
523.186044,6041157.3255856065
521.4609475999999,6041485.520926474
519.7518110000001,6041337.717717125
518.0584200000001,6041620.157315045
516.3805639,6040888.751472341
514.7180356,6041516.341483646
513.0706316000001,6041526.48510645
511.43815149999995,6041310.955117881
509.82039860000003,6041332.022793115
508.2171791999999,6041766.535302775
506.628303,6041311.383004594
505.05358269999994,6041412.460333523
503.4928341,6041665.3365338035
501.9458762,6041169.70384627
500.41253059999997,6041412.872374326
498.8926222,6041288.947061308
497.3859785,6041592.805452901
495.89242989999997,6041425.711507518
494.4118094,6041111.465648741
492.943953,6041436.070413409
491.488699,6041731.052110708
490.04588839999997,6041787.594042689
488.6153648,6041821.357796268
487.19697429999997,6042005.277973969
485.7905654,6041850.19300688
484.39598889999996,6041398.0144077325
483.01309800000007,6040986.300845202
481.64174840000004,6041203.167989108
480.28179789999996,6041170.220681667
478.93310639999993,6041485.810659807
477.59553619999997,6041229.269967456
476.2689517,6041429.207339898
474.9532192,6041712.428817701
473.6482074,6041550.011424112
472.35378679999997,6041320.223851179
471.06982989999995,6041577.103299428
469.79621110000005,6041543.000744164
468.53280700000005,6041502.22586209
467.2794956999999,6041264.50442208
466.0361575,6041526.17304048
464.80267410000005,6041109.812047103
463.5789295,6041482.617196683
462.364809,6041367.703626496
461.1601998,6041539.542509974
459.9649909,6041628.589560245
458.7790727,6041121.498958116
457.6023374,6041677.743963702
456.4346788,6041036.349593327
455.2759921,6041214.798838811
454.12617439999997,6041323.507321237
452.9851239,6041039.499196743
451.85274060000006,6041325.148694462
450.7289258,6041302.618214431
449.6135822,6040956.829615609
448.5066141,6041555.095737267
447.407927,6041365.949851112
446.317428,6041131.4988144785
445.23502520000005,6041710.272135463
444.1606283,6041314.368066731
443.0941482,6041383.5798659185
442.03549699999996,6041050.108438998
440.9845882,6041549.726913266
439.9413364,6041307.62616335
438.9056575,6041432.648177426
437.87746860000004,6041324.970934651
436.85668780000003,6041654.119435925
435.8432345,6041028.962631113
434.83702930000004,6041587.001266667
433.83799369999997,6041061.7271371875
432.84605039999997,6041397.270350571
431.8611232,6041635.498741866
430.8831369,6041741.161024971
429.9120175,6041814.210802585
428.94769169999995,6041273.469796598
427.9900874,6041485.334307081
427.03913370000004,6041168.456934223
426.0947602,6041599.9900913825
425.1568978,6041519.688712124
424.22547829999996,6040952.374626371
423.3004343,6041328.583880446
422.3816994,6041539.752042564
421.4692081,6041248.257276238
420.56289569999996,6041223.3226077985
419.66269850000003,6041379.6722440375
418.7685535,6041082.949855883
417.8803987,6041547.966292597
416.9981727,6041542.475798482
416.12181519999996,6040997.868183384
415.25126639999996,6041496.772461332
414.38646760000006,6041268.153243964
413.5273605,6041586.759225762
412.673888,6041192.0558160925
411.8259934,6037375.54312733
410.9836208,6027999.768665493
410.14671519999996,6009766.20457253
409.3152221,5980216.967819382
408.48908789999996,5936173.9122147085
407.66825960000006,5875334.057534248
406.8526847,5793873.40509104
406.0423117,5691435.24668689
405.2370896,5569513.753057923
404.43696800000004,5433000.133038637
403.64189730000004,5282074.207118501
402.8518283,5121695.851718312
402.0667126,4954599.70443046
401.28650239999996,4784466.196911282
400.5111505,4613867.924830195
399.7406101,4446042.607298087
398.9748353,4281179.326726489
398.2137806,4119371.9439241975
397.457401,3960987.914803797
396.7056521,3806189.973283725
395.9584903,3654963.69679116
395.2158722,3506969.0553153213
394.4777551,3361722.506125085
393.7440968,3219256.326351632
393.0148555,3080229.2005317286
392.2899901,2943033.4437867007
391.56946,2808878.2413255097
390.853225,2676764.573325219
390.1412452,2546768.073985137
389.43348169999996,2418677.3933416726
388.7298955,2293510.6761935977
388.03044839999995,2170485.1979698767
387.3351027,2049865.2633416243
386.6438209,1932190.972512053
385.95656610000003,1817072.9284263863
385.2733019,1705150.2839010903
384.5939922,1596235.0414941509
383.9186014,1490440.8678789455
383.2470943,1387409.2926002985
382.5794362,1287855.2027430632
381.9155926,1191278.796097934
381.2555296,1097497.947375562
380.59921360000004,1007846.1218551395
379.9466115,921682.756430028
379.29769039999996,839361.3515762821
378.652418,761983.4358509281
378.0107622,689751.7494446271
377.37269130000004,623113.477193831
376.73817410000004,562181.6838021625
376.1071796,507448.9726026946
375.47967719999997,458772.016831976
374.8556368,415968.43685860396
374.2350283,378720.6868857049
373.6178223,346612.28300887725
373.0039896,319017.61168072553
372.3935012,295416.0071408209
371.78632860000005,275147.1220445324
371.1824436,257661.4537739741
370.5818182,242493.45590071945
369.98442489999996,229188.2188743139
369.39023629999997,217231.49107922718
368.7992255,206641.4177839361
368.2113658,196960.42810306812
367.6266307,188030.8871115
367.0449943,179840.69207144438
366.4664305,172153.89581374248
365.89091410000003,164942.61264134533
365.3184196,158175.6443968618
364.7489221,151735.38537812908
364.18239689999996,145615.44698291938
363.61881960000005,139769.94634229795
363.058166,134179.38400260234
362.50041219999997,128753.52255918016
361.94553460000003,123535.66251592287
361.3935098,118525.63506834336
360.8443147,113598.70137493935
360.29792630000003,108834.6656140441
359.754322,104236.3215479622
359.2134795,99719.12142330511
358.6753765,95352.66277914893
358.1399912,91102.46567116331
357.6073018,86965.39747395237
357.077287,82956.55749206309
356.5499253,79044.6983144786
356.025196,75241.868645186
355.50307799999996,71564.244800104
354.983551,67990.47766562519
354.4665945,64558.322994625676
353.95218839999995,61248.77307705758
353.4403127,58073.77076799621
352.9309478,55045.19715431263
352.42407410000004,52154.549526247116
351.9196722,49415.45350763942
351.4177232,46797.66428769947
350.91820789999997,44307.33992832412
350.4211078,41939.71211960259
349.9264043,39694.85652793917
349.434079,37543.03039675354
348.9441137,35489.064622562
348.45649060000005,33519.592020118165
347.97119169999996,31643.86709304845
347.48819960000003,29825.113245470147
347.0074967,28104.560576949843
346.5290657,26444.273857312714
346.0528897,24861.67725645837
345.5789517,23356.448809245834
345.1072349,21920.64459432258
344.6377228,20559.20289258344
344.17039889999995,19266.65774079629
343.70524710000007,18031.87180030273
343.24225110000003,16849.881607719588
342.7813952,15744.306202260324
342.32266339999995,14682.263537578025
341.8660403,13677.047626652136
341.4115102,12728.33119188006
340.959058,11820.725048342307
340.5086685,10973.405417125565
340.06032660000005,10161.50600100854
339.6140175,9385.492775854822
339.1697264,8662.05844987344
338.7274388,7975.815976179294
338.28714019999995,7321.778465765852
337.8488164,6699.270047951103
337.41245310000005,6106.346838162482
336.9780363,5562.1204235739315
336.5455522,5041.112059474125
336.114987,4552.004784198567
335.686327,4096.694992611248
335.2595588,3677.019026176064
334.834669,3279.0036743464448
334.4116443,2916.8147524755746
333.9904716,2571.4240114380714
333.57113799999996,2258.8211135695897
333.1536305,1960.266888327789
332.73793639999997,1695.776899408903
332.32404310000004,1449.4288592056741
331.91193799999996,1221.552745017638
331.5016088,1014.1470025892488
331.0930432,823.3518389808564
330.6862289,657.111664327874
330.281154,505.6878602636174
329.8778065,381.45438373185294
329.47617460000004,278.3636194016115
329.07624649999997,189.87774873592338
328.6780106,121.90469358602532
328.2814555,73.17738113927548
327.88656960000003,46.2080170392591
327.4933418,17.97281125344335
327.1017607,7.216658968234071
326.7118154,4.036631484033542
326.32349480000005,-1.1647512147077743
325.93678789999996,-2.145050600891907
325.5516841,-0.7291504295685524
325.16817260000005,1.3540595238955213
324.7862428,3.6755525121083528
324.40588419999995,3.2522340189480734
324.0270864,-1.8491909377311848
323.649839,-2.5788168379167913
323.2741319,2.3781254474896367
322.8999548,3.081463362696783
322.5272977,1.774710684734526
322.1561508,-0.2518691047712304
321.786504,-3.9437658431123706
321.4183476,-0.9723784774848816
321.0516719,0.2170342626106609
320.6864673,-5.692159525594917
320.3227243,0.5006347462481913
319.96043330000003,-2.8671889161004693
319.5995851,-4.554720230643236
319.2401704,-0.3612963379145774
318.8821799,1.0690050173736645
318.5256045,-2.3094784263269927
318.1704352,2.308224427274093
317.8166631,1.0699081356491669
317.4642791,0.925945574854047
317.1132746,0.10132781611474126
316.76364069999994,-3.4641442411331385
316.4153688,-1.7107621428631994
316.06845039999996,-1.031456779770432
315.72287689999996,-1.855951507907863
315.37863980000003,2.210136549798623
315.0357308,2.3952302043679645
314.6941415,3.816342896664828
314.3538639,-0.2898995087644345
314.0148896,2.7869071080598355
313.6772106,-1.2268988086983743
313.3408189,-3.6231308039239867
313.00570639999995,-2.5035169777364694
312.67186549999997,-4.17269176315956
312.33928810000003,-0.3754050562215342
312.0079665,-0.688878909592153
311.6778931,-1.2945406558140258
311.34906010000003,-1.3868508345478532
311.0214601,-0.6088136676943486
310.6950856,2.3395451219275625
310.369929,3.74219687216675
310.04598300000004,2.011403746975703
309.7232403,0.7593388403698986
309.4016935,-3.0317275267334503
309.0813356,-0.5172009135957701
308.7621594,-0.2029472228284747
308.4441577,-1.9886608937103252
308.1273236,-1.9031789018145024
307.8116501,-1.7932744127681268
307.49713019999996,0.5030711180019752
307.18375710000004,-2.537000682435246
306.871524,-2.4729820845608947
306.5604242,-1.629257055015429
306.2504509,1.8087181944095947
