wave,flux
1817.164934,-8.857344119163075
1790.1022050000001,-2.2954272560874305
1763.812741,14.78115042623115
1738.2646949999998,39.81022865586424
1713.427949,88.4741487921946
1689.273995,521.569511197162
1665.7758310000002,1624.7154131080122
1642.907862,3430.980038806485
1620.64581,5911.894438926431
1598.9666300000001,9243.536626847676
1577.8484310000001,13318.653728622632
1557.270407,18336.948495578563
1537.212767,24228.889353081708
1517.65668,30326.661490736864
1498.5842089999999,36453.15433638786
1479.978265,42376.8417050257
1461.822555,48163.60181403044
1444.101535,53661.7888313021
1426.800368,58911.46732654938
1409.904887,63780.82284031054
1393.401553,68429.7655265054
1377.2774220000001,72804.65227920657
1361.520115,77235.1978049672
1346.117782,81657.20315538027
1331.059081,86000.2467224307
1316.3331449999998,90370.61210052996
1301.92956,94750.58125148977
1287.838342,99020.89497438104
1274.049912,103310.17105859033
1260.5550779999999,107657.13677425242
1247.345017,111881.13194223172
1234.4112519999999,116173.74062330136
1221.74564,120505.3494555499
1209.340352,124784.4836439977
1197.187859,129048.5186849633
1185.28092,133324.73857592785
1173.612564,137655.92200988677
1162.1760800000002,142024.0085375516
1150.9650060000001,146330.58686934094
1139.973115,150568.23800939939
1129.194406,154744.1093287196
1118.623093,159094.05794873886
1108.253594,163247.08935961575
1098.0805269999998,167603.30330430216
1088.098695,171856.69159648713
1078.303081,176236.9135080716
1068.688841,180622.78719596518
1059.251295,185579.1380873872
1049.9859199999999,190816.83817101415
1040.8883449999998,196789.99051679132
1031.9543429999999,203286.457463212
1023.1798259999999,210653.13123634746
1014.5608390000001,218935.03055576148
1006.0935529999999,228026.57185782678
997.774265,237999.16113524
989.5993858999999,248479.875146529
981.5654412999999,259612.9185436988
973.6690651,271100.7580523521
965.9069952,282829.63498192315
958.2760697000001,294421.60906993004
950.7732231000001,305685.7606127925
943.3954827,316434.32214219344
936.1399648,326796.4638243075
929.0038716,336441.794578348
921.9844879000001,345330.4048932313
915.0791782,353991.06293412705
908.2853836000002,361911.5324785773
901.6006193,369927.17918545264
895.0224714,378229.63457869244
888.548595,387193.3860459668
882.1767113,397618.2454755539
875.9046055,409550.43171804014
869.7301242999998,422775.6090394979
863.6511742999999,439011.9485144404
857.6657193,457667.48231185524
851.7717787,480127.8298608158
845.9674256000001,507650.84623632533
840.2507849,539091.2797872815
834.6200316000001,577607.4049601682
829.0733892000001,622431.7940840818
823.6091279,673715.4268929742
818.2255633999999,730587.3824199799
812.9210552000001,794383.4017639122
807.694005,863508.0347053128
802.5428559,932643.6265810907
797.4660904,1009966.9290870387
792.4622299,1086265.863500063
787.5298327,1168769.3865825415
782.6674933999999,1260077.185793213
777.8738417999999,1363732.4014666025
773.1475413,1492194.6431001
768.4872882999999,1648865.0551175943
763.8918112000001,1844989.0654617937
759.3598692,2084356.4112366647
754.8902515999999,2374407.933278284
750.4817767999999,2719877.213405561
746.1332914,3099794.7140489924
741.8436694000001,3510769.6271006437
737.6118116,3926595.23144593
733.4366444,4341922.01798808
729.3171195,4732805.150770908
725.2522127999999,5079327.3361848965
721.2409241,5371288.104899329
717.282276,5600035.477970325
713.3753136,5770761.425214618
709.5191037000001,5891449.013402664
705.7127343,5968306.618462899
701.9553139,6015867.469252802
698.2459709,6034124.216445682
694.5838534,6041484.851003436
690.9681281000001,6040948.228270322
687.3979803,6042747.369965913
683.8726131,6039253.285634104
680.3912472999999,6041122.484353202
676.9531202000001,6042626.280252002
673.557486,6040657.53959409
670.2036149,6042963.713013138
666.8907926,6039785.854719778
663.6183202999999,6043231.067568135
660.3855139,6041312.268475731
657.1917038,6041388.482536378
654.0362346,6042483.15714048
650.9184646000001,6041703.500696513
647.8377654,6039561.701440978
644.7935217999999,6041824.556763917
641.7851312999999,6041462.755015803
638.8120038,6041439.061728967
635.8735614,6042489.963911682
632.9692378999999,6042429.247638969
630.0984786,6042837.339093351
627.2607402000001,6040386.243214856
624.4554901,6040510.717894767
621.6822068,6040691.922747601
618.940379,6042333.78071024
616.2295054,6041680.552266642
613.549095,6041357.508614978
610.8986664,6040699.673885998
608.2777476,6041954.006196945
605.6858758999999,6041315.870243332
603.1225977000001,6041848.991230547
600.5874682,6041303.183290263
598.0800512,6041533.854549067
595.5999188999999,6041471.65415922
593.1466518,6041503.730897098
590.7198384999999,6041550.378778045
588.3190752,6041334.051894742
585.943966,6041182.132594558
583.5941226,6041605.607627295
581.2691637,6041383.259686087
578.9687155,6041283.201281786
576.692411,6041228.92539752
574.4398902,6041878.46529394
572.2107997,6041631.05216965
570.0047927,6041603.686400793
567.8215287,6041390.584749027
565.6606737000001,6041298.901395815
563.5218996,6041423.623925878
561.4048845,6041794.820031525
559.3093121,6041470.43575181
557.2348721,6041166.803978053
555.1812597,6040980.158440856
553.1481756000001,6041524.857208173
551.1353259,6041264.568329855
549.1424218999999,6041654.727425394
547.1691801,6041189.371014744
545.2153222000001,6041533.143119226
543.2805745000001,6041318.721508493
541.3646685,6041865.64286237
539.46734,6041873.94226549
537.5883299,6040862.122797762
535.7273833,6041672.70151611
533.8842498,6041377.675129289
532.0586836,6041045.255410778
530.2504428000001,6041473.122013547
528.45929,6041447.270144031
526.6849915,6041141.955782825
524.927318,6041367.8549427735
523.186044,6041876.828210724
521.4609475999999,6041471.532870865
519.7518110000001,6041714.514991911
518.0584200000001,6041106.580758548
516.3805639,6041589.545259803
514.7180356,6041411.878888025
513.0706316000001,6041557.291455995
511.43815149999995,6041329.815812379
509.82039860000003,6041686.744712318
508.2171791999999,6041134.704585858
506.628303,6041197.552042599
505.05358269999994,6041516.6066477485
503.4928341,6041351.286518792
501.9458762,6041725.879007893
500.41253059999997,6041473.146747368
498.8926222,6041526.982914401
497.3859785,6040998.941661535
495.89242989999997,6041336.474078437
494.4118094,6041539.7782140225
492.943953,6041768.075996732
491.488699,6041763.6707354225
490.04588839999997,6040980.144472312
488.6153648,6041382.722687959
487.19697429999997,6041202.100974479
485.7905654,6041545.831412211
484.39598889999996,6041600.41803012
483.01309800000007,6041405.2533936575
481.64174840000004,6041110.434271687
480.28179789999996,6041545.7215845985
478.93310639999993,6041162.684151023
477.59553619999997,6041459.4519787375
476.2689517,6041441.258564592
474.9532192,6041553.811433418
473.6482074,6041742.683991592
472.35378679999997,6041402.611681502
471.06982989999995,6040993.620897839
469.79621110000005,6041562.18703804
468.53280700000005,6041342.64195835
467.2794956999999,6041164.210905887
466.0361575,6041388.349087885
464.80267410000005,6041769.736055652
463.5789295,6041325.479369807
462.364809,6041260.693591896
461.1601998,6041807.934549205
459.9649909,6037944.7513724025
458.7790727,6028686.150444162
457.6023374,6008117.346840046
456.4346788,5973918.515574815
455.2759921,5923614.302046362
454.12617439999997,5854882.553589622
452.9851239,5765957.824185865
451.85274060000006,5654615.516203376
450.7289258,5528618.414759713
449.6135822,5393500.211549733
448.5066141,5256856.958118058
447.407927,5126543.277951359
446.317428,5008305.8098185705
445.23502520000005,4907677.746762479
444.1606283,4828937.790841868
443.0941482,4772732.830538747
442.03549699999996,4736902.74883203
440.9845882,4715214.99016474
439.9413364,4700262.416318098
438.9056575,4685450.951621986
437.87746860000004,4662161.0592189785
436.85668780000003,4623525.3474141685
435.8432345,4564090.785578981
434.83702930000004,4480599.258353595
433.83799369999997,4371687.679688735
432.84605039999997,4238916.224614572
431.8611232,4085777.1838647374
430.8831369,3916307.3303957186
429.9120175,3736691.473189066
428.94769169999995,3551922.176478363
427.9900874,3368641.68245522
427.03913370000004,3191261.6904835645
426.0947602,3024215.936543217
425.1568978,2869486.585531431
424.22547829999996,2730777.664204425
423.3004343,2607812.5860826126
422.3816994,2501348.288325408
421.4692081,2411145.1529596243
420.56289569999996,2336229.217599313
419.66269850000003,2274230.8291186183
418.7685535,2223985.7640790856
417.8803987,2183235.9527972033
416.9981727,2149560.400417529
416.12181519999996,2121131.638410401
415.25126639999996,2096367.9779358397
414.38646760000006,2073037.220074539
413.5273605,2050484.940514073
412.673888,2027187.6230752037
411.8259934,2001879.9914279853
410.9836208,1973974.3262786444
410.14671519999996,1942032.577299298
409.3152221,1905631.655991485
408.48908789999996,1863960.8562615525
407.66825960000006,1816497.4183711298
406.8526847,1763762.768705644
406.0423117,1706370.4577652689
405.2370896,1645439.4705880447
404.43696800000004,1583130.358653371
403.64189730000004,1520937.8838512925
402.8518283,1461455.6380988269
402.0667126,1405854.611779463
401.28650239999996,1356095.208187812
400.5111505,1312120.2976511486
399.7406101,1273519.7257147836
398.9748353,1239910.5099768927
398.2137806,1209958.82083156
397.457401,1182530.7710896032
396.7056521,1156050.5610881874
395.9584903,1129554.1185501108
395.2158722,1102116.6532522128
394.4777551,1073369.5558722718
393.7440968,1044550.606780834
393.0148555,1016163.5080831356
392.2899901,987953.7667843177
391.56946,961378.2838411884
390.853225,937033.3215427428
390.1412452,915583.2016573913
389.43348169999996,897064.9997069424
388.7298955,881734.8392567124
388.03044839999995,869052.2985171677
387.3351027,858500.1023904636
386.6438209,849789.0181388527
385.95656610000003,842238.2107828434
385.2733019,834738.9318494898
384.5939922,826471.3242152919
383.9186014,816764.8373840769
383.2470943,805010.9585942947
382.5794362,790654.4777079555
381.9155926,773637.3076181016
381.2555296,753968.3404599858
380.59921360000004,731986.3275732469
379.9466115,708666.9405635863
379.29769039999996,685011.90764059
378.652418,662010.479620878
378.0107622,640814.27575072
377.37269130000004,622281.4830898771
376.73817410000004,607205.0303293528
376.1071796,596098.0105868585
375.47967719999997,589148.2783563144
374.8556368,585774.8486612196
374.2350283,585908.5041492422
373.6178223,588851.5195438836
373.0039896,593689.9455357968
372.3935012,599740.3107532993
371.78632860000005,606285.4450480279
371.1824436,612693.0669809752
370.5818182,618574.5327545761
369.98442489999996,623246.167120578
369.39023629999997,626620.2874497364
368.7992255,628439.1588239886
368.2113658,628515.5484871848
367.6266307,626702.2751927301
367.0449943,622791.7475504909
366.4664305,616941.2777848382
365.89091410000003,609126.983241421
365.3184196,599299.6049916864
364.7489221,587674.1605674208
364.18239689999996,574622.9284616164
363.61881960000005,560530.8256839528
363.058166,545708.9075333208
362.50041219999997,530693.0354356933
361.94553460000003,515892.048466274
361.3935098,501774.5153895575
360.8443147,488722.2823506126
360.29792630000003,477092.4641109789
359.754322,467128.7423514554
359.2134795,459166.60739445314
358.6753765,453194.4843940816
358.1399912,449404.46245597437
357.6073018,447613.19695980375
357.077287,447919.2693798397
356.5499253,450230.22688788455
356.025196,454607.025643778
355.50307799999996,460684.4450426207
354.983551,468362.40240419924
354.4665945,477478.85622954
353.95218839999995,487753.68637579674
353.4403127,499025.8505244149
352.9309478,510693.880911859
352.42407410000004,522472.3680716342
351.9196722,533502.4203811535
351.4177232,543230.1799838651
350.91820789999997,550999.7196410397
350.4211078,555860.983109161
349.9264043,557220.8896580241
349.434079,554455.7539005363
348.9441137,547243.9995164417
348.45649060000005,535525.6259660114
347.97119169999996,519411.14442048024
347.48819960000003,499285.5327229825
347.0074967,475995.9591371175
346.5290657,450284.6468829475
346.0528897,423247.8069346745
345.5789517,395812.63329851354
345.1072349,369115.49681044376
344.6377228,343896.3963242918
344.17039889999995,320789.81716304924
343.70524710000007,300349.21118152264
343.24225110000003,282735.8279872315
342.7813952,268053.1889416404
342.32266339999995,256062.6628577237
341.8660403,246524.4620614773
341.4115102,238931.49987510985
340.959058,232813.5204325831
340.5086685,227647.86007293192
340.06032660000005,222814.7612103759
339.6140175,217941.37680471962
339.1697264,212569.08601393428
338.7274388,206368.40398116177
338.28714019999995,199149.2183630566
337.8488164,190878.41961997093
337.41245310000005,181542.0488333281
336.9780363,171232.31714911095
336.5455522,160284.5343025333
336.114987,148852.17057763613
335.686327,137300.4200571397
335.2595588,125838.48717663894
334.834669,114756.45432296953
334.4116443,104201.52899157227
333.9904716,94380.02720978727
333.57113799999996,85326.77298757284
333.1536305,77161.09135496433
332.73793639999997,69772.98805867342
332.32404310000004,63153.453955055695
331.91193799999996,57320.504932395095
331.5016088,52113.97509645001
331.0930432,47491.57674547337
330.6862289,43394.166274595314
330.281154,39694.299734078566
329.8778065,36450.790964014515
329.47617460000004,33509.437122665426
329.07624649999997,30833.863395732387
328.6780106,28446.43645114205
328.2814555,26303.760870229708
327.88656960000003,24343.86602444316
327.4933418,22611.692054506006
327.1017607,21071.13536552536
326.7118154,19712.11597763018
326.32349480000005,18468.76275697648
325.93678789999996,17389.240491274708
325.5516841,16437.807973602685
325.16817260000005,15593.235690789983
324.7862428,14868.90067322413
324.40588419999995,14195.633869112777
324.0270864,13612.728214358262
323.649839,13074.335242927089
323.2741319,12581.1854003874
322.8999548,12131.513181458435
322.5272977,11703.55787297123
322.1561508,11270.451082785483
321.786504,10864.05159225788
321.4183476,10458.86243689893
321.0516719,10063.492987553702
320.6864673,9678.390365257399
320.3227243,9294.348436426446
319.96043330000003,8918.342783601916
319.5995851,8553.254014626398
319.2401704,8204.728657710832
318.8821799,7867.099306204119
318.5256045,7541.797597759069
318.1704352,7234.5006492120565
317.8166631,6931.708065267108
317.4642791,6641.304231362987
317.1132746,6360.862207613614
316.76364069999994,6113.263151038404
316.4153688,5869.832473666721
316.06845039999996,5634.076850286533
315.72287689999996,5415.059323967286
315.37863980000003,5210.715463199866
315.0357308,5011.550154971964
314.6941415,4820.4802299925095
314.3538639,4639.8355908766325
314.0148896,4463.2460871476005
313.6772106,4279.542202137235
313.3408189,4117.5853488125
313.00570639999995,3953.9041703185435
312.67186549999997,3781.2600828935792
312.33928810000003,3614.348196123981
312.0079665,3452.755065345153
311.6778931,3279.4587227446177
311.34906010000003,3104.0664079699372
311.0214601,2929.497054800589
310.6950856,2752.6261143143083
310.369929,2556.256801771885
310.04598300000004,2374.553663927622
309.7232403,2189.4046452553694
309.4016935,2014.4261734470695
309.0813356,1848.6644605928311
308.7621594,1693.682660737092
308.4441577,1560.8820052641129
308.1273236,1439.5414051584314
307.8116501,1336.159370399092
307.49713019999996,1101.2238082642737
307.18375710000004,883.4265729392868
306.871524,689.0338288315158
306.5604242,523.0712295077003
306.2504509,374.3500071925846
