wave,flux
1817.164934,-5.244941649718938
1790.1022050000001,-4.584907945847384
1763.812741,-4.7099247812247595
1738.2646949999998,20.857915120636285
1713.427949,71.7859333236598
1689.273995,291.6915234410745
1665.7758310000002,820.8299586496614
1642.907862,1709.480910990079
1620.64581,2966.2874739379577
1598.9666300000001,4615.233121235613
1577.8484310000001,6730.303755169025
1557.270407,9293.734972657352
1537.212767,12316.105635101516
1517.65668,15525.519370221262
1498.5842089999999,18809.98481406096
1479.978265,22095.038078697242
1461.822555,25360.164616378363
1444.101535,28523.779398618746
1426.800368,31676.98711302672
1409.904887,34681.874889886116
1393.401553,37606.89898630669
1377.2774220000001,40454.938391223724
1361.520115,43394.69804337238
1346.117782,46328.14836673533
1331.059081,49380.937489347976
1316.3331449999998,52417.63775667241
1301.92956,55549.62398513131
1287.838342,58690.83156720003
1274.049912,61856.27603468933
1260.5550779999999,65097.042546383695
1247.345017,68309.0650069113
1234.4112519999999,71623.00209232267
1221.74564,74950.17213484398
1209.340352,78293.21656370678
1197.187859,81630.60603138979
1185.28092,85052.69378564737
1173.612564,88476.7320602282
1162.1760800000002,92003.32669484924
1150.9650060000001,95600.02986142997
1139.973115,99084.20390145047
1129.194406,102571.98786550298
1118.623093,106128.6891520033
1108.253594,109641.84662178812
1098.0805269999998,113217.40850794506
1088.098695,116866.80377987244
1078.303081,120528.94360108992
1068.688841,124325.12569813168
1059.251295,128076.20067161154
1049.9859199999999,132324.03770271907
1040.8883449999998,136908.28521915342
1031.9543429999999,141715.3946859763
1023.1798259999999,146879.96393720663
1014.5608390000001,152755.65652152093
1006.0935529999999,158968.49293259127
997.774265,165865.25748433504
989.5993858999999,172966.46583634976
981.5654412999999,180615.6867063363
973.6690651,188477.72404786554
965.9069952,196469.39189396266
958.2760697000001,204522.6123968736
950.7732231000001,212363.36510003995
943.3954827,220095.325450861
936.1399648,228192.75787407692
929.0038716,235375.2032647712
921.9844879000001,242926.1431720342
915.0791782,250044.3102071259
908.2853836000002,257064.1162539956
901.6006193,264454.0311372857
895.0224714,271685.681675572
888.548595,279201.34028220834
882.1767113,287730.86405812646
875.9046055,296958.03824344336
869.7301242999998,307165.8314755105
863.6511742999999,318694.2089408706
857.6657193,331220.80090962193
851.7717787,346297.26162455423
845.9674256000001,363742.71295962157
840.2507849,383495.586159161
834.6200316000001,406411.8065561177
829.0733892000001,432184.6995803733
823.6091279,462498.50096158095
818.2255633999999,495631.9418168895
812.9210552000001,532054.4413040916
807.694005,570281.7830347257
802.5428559,612351.0751642459
797.4660904,657221.4916779116
792.4622299,702982.2798668317
787.5298327,751477.4683095573
782.6674933999999,806290.4497796047
777.8738417999999,868587.2503501795
773.1475413,941954.4852901526
768.4872882999999,1031594.1313749492
763.8918112000001,1140934.0641499418
759.3598692,1272640.1395167352
754.8902515999999,1431747.3894421558
750.4817767999999,1621472.912890939
746.1332914,1833533.281283308
741.8436694000001,2068265.5052832547
737.6118116,2321117.308674076
733.4366444,2580554.2474128646
729.3171195,2846731.2136977995
725.2522127999999,3112007.395759889
721.2409241,3381261.655133008
717.282276,3657471.498279525
713.3753136,3932079.684824695
709.5191037000001,4204702.714711683
705.7127343,4476285.635740683
701.9553139,4746012.522097455
698.2459709,5002610.401511242
694.5838534,5248707.855004521
690.9681281000001,5463719.886129535
687.3979803,5641728.857546981
683.8726131,5779733.672788473
680.3912472999999,5885560.7447537985
676.9531202000001,5961715.1567240665
673.557486,6005961.323748662
670.2036149,6034933.119442333
666.8907926,6042339.2847066475
663.6183202999999,6042128.135000855
660.3855139,6041807.800296571
657.1917038,6041735.552847733
654.0362346,6040256.008285286
650.9184646000001,6041832.419188495
647.8377654,6042678.422087672
644.7935217999999,6041180.394496495
641.7851312999999,6041234.872398618
638.8120038,6040217.131477158
635.8735614,6041011.111879506
632.9692378999999,6041869.2634866815
630.0984786,6042662.223995377
627.2607402000001,6041531.037954032
624.4554901,6040738.122289552
621.6822068,6039909.953676352
618.940379,6041465.038222493
616.2295054,6041031.996669609
613.549095,6041409.801179945
610.8986664,6041539.762843371
608.2777476,6041208.177578515
605.6858758999999,6041581.790586382
603.1225977000001,6041122.283085226
600.5874682,6040774.236511207
598.0800512,6040995.882811769
595.5999188999999,6041618.6619943315
593.1466518,6041204.556527717
590.7198384999999,6041678.353927253
588.3190752,6041169.812325431
585.943966,6041833.476092367
583.5941226,6041376.258818287
581.2691637,6041110.824050689
578.9687155,6041178.392192199
576.692411,6041305.1442623325
574.4398902,6041236.865324405
572.2107997,6041364.196606182
570.0047927,6041600.045454892
567.8215287,6041435.154089563
565.6606737000001,6041324.000577603
563.5218996,6041712.254407505
561.4048845,6041848.2485835515
559.3093121,6041390.726096565
557.2348721,6041526.664863799
555.1812597,6041819.857222063
553.1481756000001,6041557.60297385
551.1353259,6041583.079226045
549.1424218999999,6041297.6888809735
547.1691801,6041123.169180107
545.2153222000001,6041344.19851776
543.2805745000001,6041432.535756128
541.3646685,6041493.03864923
539.46734,6041552.2903128825
537.5883299,6041747.423896102
535.7273833,6040976.682115021
533.8842498,6041282.957444265
532.0586836,6041219.536547198
530.2504428000001,6041534.580504015
528.45929,6041243.916035728
526.6849915,6041523.553080083
524.927318,6041165.308239584
523.186044,6041307.477032107
521.4609475999999,6041654.739858499
519.7518110000001,6041476.002256038
518.0584200000001,6041576.115731628
516.3805639,6041337.643627731
514.7180356,6041565.67686441
513.0706316000001,6041227.911254178
511.43815149999995,6041270.664574001
509.82039860000003,6041501.622864918
508.2171791999999,6041509.846265952
506.628303,6041496.421367763
505.05358269999994,6041182.320791462
503.4928341,6041645.858605604
501.9458762,6041586.265780666
500.41253059999997,6041091.890546817
498.8926222,6041706.3157714475
497.3859785,6041306.7384739835
495.89242989999997,6041005.150759644
494.4118094,6041467.5662842
492.943953,6041284.074736662
491.488699,6041345.095698613
490.04588839999997,6041261.765084381
488.6153648,6041526.599776679
487.19697429999997,6041506.196739485
485.7905654,6041738.232815716
484.39598889999996,6041661.180520101
483.01309800000007,6041466.7437348
481.64174840000004,6041340.436677701
480.28179789999996,6041424.966753225
478.93310639999993,6041301.843815792
477.59553619999997,6041496.330832343
476.2689517,6041804.155440865
474.9532192,6041425.556614133
473.6482074,6041562.112585743
472.35378679999997,6041115.296191308
471.06982989999995,6041802.646252971
469.79621110000005,6041435.29956412
468.53280700000005,6041249.39038043
467.2794956999999,6040981.184720818
466.0361575,6041181.5119982725
464.80267410000005,6041303.663261423
463.5789295,6041207.930407243
462.364809,6041226.8446514765
461.1601998,6040861.083038278
459.9649909,6041370.455441054
458.7790727,6041171.331857334
457.6023374,6040290.834514791
456.4346788,6033996.797998193
455.2759921,6020428.91800848
454.12617439999997,5997182.827113389
452.9851239,5961907.071710745
451.85274060000006,5912859.019392196
450.7289258,5846953.689556568
449.6135822,5762785.283026897
448.5066141,5662188.356238136
447.407927,5549599.532185804
446.317428,5429517.742460484
445.23502520000005,5304601.089130952
444.1606283,5180109.718451239
443.0941482,5058554.7615341805
442.03549699999996,4943349.862413389
440.9845882,4836056.571624207
439.9413364,4736428.259428062
438.9056575,4642534.396138468
437.87746860000004,4551457.805585935
436.85668780000003,4460187.089369252
435.8432345,4366591.8637008285
434.83702930000004,4267017.29899733
433.83799369999997,4160774.306531953
432.84605039999997,4047580.3683834393
431.8611232,3927090.7759091323
430.8831369,3801280.2821318386
429.9120175,3671714.890731735
428.94769169999995,3540545.7695294907
427.9900874,3409583.115054654
427.03913370000004,3281103.5973068606
426.0947602,3155702.830707937
425.1568978,3034561.007414278
424.22547829999996,2917970.888883079
423.3004343,2805398.0012098555
422.3816994,2696568.371372635
421.4692081,2591714.2595827268
420.56289569999996,2488811.7510020025
419.66269850000003,2388875.021845578
418.7685535,2291390.585190484
417.8803987,2195924.9485511244
416.9981727,2102553.8218596233
416.12181519999996,2011488.1636823209
415.25126639999996,1922806.1142773763
414.38646760000006,1836500.14097631
413.5273605,1752706.036363877
412.673888,1671819.70867663
411.8259934,1593674.235626337
410.9836208,1518270.4999115816
410.14671519999996,1446213.0881521543
409.3152221,1377366.5530973934
408.48908789999996,1311670.4300329154
407.66825960000006,1249640.248678126
406.8526847,1191226.9220443806
406.0423117,1136573.3044739168
405.2370896,1085530.218107596
404.43696800000004,1038182.9823799948
403.64189730000004,994334.6664739384
402.8518283,954100.9337400269
402.0667126,917198.5345174277
401.28650239999996,883309.3886011529
400.5111505,852387.1566844992
399.7406101,823351.4904361527
398.9748353,796629.823839923
398.2137806,771466.3190545095
397.457401,747644.7869758313
396.7056521,724834.9054759238
395.9584903,703163.4900312476
395.2158722,682337.5441254915
394.4777551,661975.92195419
393.7440968,642814.5612163383
393.0148555,624546.4272290022
392.2899901,606796.5637734262
391.56946,589412.0582287692
390.853225,572058.9496598223
390.1412452,554085.6001523838
389.43348169999996,535461.6682221285
388.7298955,515701.17798755685
388.03044839999995,494437.6141166653
387.3351027,471768.4746418705
386.6438209,447697.3127794778
385.95656610000003,422633.72972244275
385.2733019,396779.5020317789
384.5939922,370564.59341295325
383.9186014,344563.35844875657
383.2470943,318872.09116661234
382.5794362,293989.73586166237
381.9155926,270107.80916005943
381.2555296,247416.12058099156
380.59921360000004,225849.25422152012
379.9466115,205670.39115162301
379.29769039999996,186849.15941619512
378.652418,169396.83454536324
378.0107622,153356.38641407015
377.37269130000004,138693.48406538993
376.73817410000004,125386.28022573725
376.1071796,113404.64747505116
375.47967719999997,102753.33126929216
374.8556368,93276.03293004996
374.2350283,85006.76274085848
373.6178223,77787.10697459399
373.0039896,71494.61303776535
372.3935012,66044.0918385669
371.78632860000005,61292.68609546742
371.1824436,57160.81146705437
370.5818182,53543.32782619316
369.98442489999996,50356.31379502693
369.39023629999997,47509.07728351724
368.7992255,44956.7020181117
368.2113658,42644.3320360977
367.6266307,40542.90051177895
367.0449943,38605.152454756535
366.4664305,36810.006694248885
365.89091410000003,35130.05080605568
365.3184196,33587.56913369248
364.7489221,32110.28512344589
364.18239689999996,30704.39566804865
363.61881960000005,29328.707996180736
363.058166,27996.76642410564
362.50041219999997,26711.682006454
361.94553460000003,25458.635439146852
361.3935098,24235.04732559898
360.8443147,23039.9614684556
360.29792630000003,21887.667400312508
359.754322,20779.87048679755
359.2134795,19727.64046235676
358.6753765,18720.56973984383
358.1399912,17760.803240640653
357.6073018,16835.75082976633
357.077287,15944.43347910662
356.5499253,15079.588351549424
356.025196,14261.64959760795
355.50307799999996,13458.554506746315
354.983551,12674.183392013909
354.4665945,11924.545584902251
353.95218839999995,11196.820944979705
353.4403127,10508.999047803929
352.9309478,9876.404314618092
352.42407410000004,9283.276533563361
351.9196722,8713.589231852682
351.4177232,8188.9283171009265
350.91820789999997,7702.054963366198
350.4211078,7250.250739978241
349.9264043,6831.798654032261
349.434079,6424.8462710952745
348.9441137,6048.4232172259935
348.45649060000005,5698.463634701217
347.97119169999996,5371.049386415448
347.48819960000003,5051.544150183578
347.0074967,4753.594392152434
346.5290657,4475.115648999228
346.0528897,4222.853974668095
345.5789517,3990.1311874882313
345.1072349,3757.7417472405823
344.6377228,3554.607993226148
344.17039889999995,3352.68471021844
343.70524710000007,3177.731523188627
343.24225110000003,3010.628878317909
342.7813952,2845.156677419477
342.32266339999995,2691.5349916799482
341.8660403,2541.5373558317897
341.4115102,2394.429693013557
340.959058,2258.8471324366524
340.5086685,2119.1730623293215
340.06032660000005,1991.7404745965603
339.6140175,1863.1688460272567
339.1697264,1745.4439985428385
338.7274388,1639.1756793401553
338.28714019999995,1526.593089304124
337.8488164,1416.984978013857
337.41245310000005,1316.3881838046902
336.9780363,1208.1432874142074
336.5455522,1109.5547823713214
336.114987,1001.803540976263
335.686327,902.0408455640787
335.2595588,804.0061792790315
334.834669,711.4617067057086
334.4116443,620.6971417793874
333.9904716,534.5361585038523
333.57113799999996,465.5560995448831
333.1536305,389.8966057737471
332.73793639999997,328.4943083630186
332.32404310000004,278.16397496750983
331.91193799999996,232.11940807123563
331.5016088,188.65048534394924
331.0930432,151.19496759629754
330.6862289,122.66334700584272
330.281154,99.04020988127914
329.8778065,72.45925141999734
329.47617460000004,51.03829950716454
329.07624649999997,39.26970042634765
328.6780106,26.75060989972497
328.2814555,12.67898833138108
327.88656960000003,10.359395979931817
327.4933418,3.873245469808877
327.1017607,6.599770150635974
326.7118154,-1.8586063319464992
326.32349480000005,3.4590913900494438
325.93678789999996,-3.877756352398023
325.5516841,-0.12284144855016366
325.16817260000005,-4.039577987425161
324.7862428,1.246460342955417
324.40588419999995,1.5936806280074842
324.0270864,2.1824795214753285
323.649839,-0.03908801748608593
323.2741319,3.395828490131989
322.8999548,-2.2069637204052888
322.5272977,-3.335889812944965
322.1561508,1.0871924820302146
321.786504,0.4384668811877931
321.4183476,0.4325969135010517
321.0516719,5.064524349589099
320.6864673,-0.7563778900379375
320.3227243,-1.2232707413476498
319.96043330000003,0.04098842314326975
319.5995851,2.0869000324064766
319.2401704,-5.0122998808031
318.8821799,-3.1180436798260294
318.5256045,0.7928493369543833
318.1704352,-2.387631791297861
317.8166631,-1.1941067386200008
317.4642791,3.254154776316967
317.1132746,-0.8151226311319806
316.76364069999994,-2.545014058721521
316.4153688,1.8777986093564951
316.06845039999996,-3.3912300290100696
315.72287689999996,-0.2289377143045476
315.37863980000003,-1.1610919306052516
315.0357308,1.4591116025021955
314.6941415,3.80777356921746
314.3538639,4.738773715628437
314.0148896,1.3584898788004631
313.6772106,1.9057995200745268
313.3408189,0.8785534283271439
313.00570639999995,5.2003705642126254
312.67186549999997,-2.7424197170840245
312.33928810000003,1.848654431197936
312.0079665,-3.5521336294502253
311.6778931,-0.06680299799488497
311.34906010000003,-1.6051877943679551
311.0214601,3.409789709003397
310.6950856,3.021994132338723
310.369929,4.5057221623621295
310.04598300000004,2.67397751575694
309.7232403,-0.4978676440560744
309.4016935,-2.203776929807945
309.0813356,-2.21848467999266
308.7621594,-0.6882864702581654
308.4441577,-6.0930106709889404
308.1273236,-2.132726671197497
307.8116501,0.9250414394836796
307.49713019999996,1.7835646953314623
307.18375710000004,1.1900136146968607
306.871524,1.2807226111872283
306.5604242,-0.6567121586574536
306.2504509,-2.0128026883273518
