wave,flux
1817.164934,-1.6724245278971082
1790.1022050000001,7.291970910492707
1763.812741,3.6685127603796537
1738.2646949999998,48.263370441947544
1713.427949,123.1540746974358
1689.273995,412.10568249459703
1665.7758310000002,1001.2337739426653
1642.907862,1947.703719036712
1620.64581,3341.276153329745
1598.9666300000001,5200.419363055749
1577.8484310000001,7606.8887793866625
1557.270407,10519.031671506573
1537.212767,13992.498187997646
1517.65668,17781.673327278953
1498.5842089999999,21781.063787751253
1479.978265,25839.600656916336
1461.822555,29921.840929179616
1444.101535,33954.66554503815
1426.800368,37873.66328926087
1409.904887,41600.93298339184
1393.401553,45119.06305263057
1377.2774220000001,48423.00457800346
1361.520115,51593.24879290287
1346.117782,54565.8517853537
1331.059081,57339.843552571976
1316.3331449999998,59880.0497491783
1301.92956,62272.87916134097
1287.838342,64479.50610686558
1274.049912,66514.41961114331
1260.5550779999999,68437.373720904
1247.345017,70216.61526727771
1234.4112519999999,71952.07446805737
1221.74564,73624.19550754872
1209.340352,75211.75233960991
1197.187859,76811.46371987528
1185.28092,78451.77887653232
1173.612564,80111.79285061498
1162.1760800000002,81795.70815688279
1150.9650060000001,83593.16614300484
1139.973115,85377.71723314801
1129.194406,87286.64891017356
1118.623093,89271.26358320992
1108.253594,91583.57340817935
1098.0805269999998,93761.4838886364
1088.098695,96258.64709987707
1078.303081,98906.52513648369
1068.688841,101821.72211696119
1059.251295,104952.92454725476
1049.9859199999999,108460.78128125767
1040.8883449999998,112577.11073845258
1031.9543429999999,117152.34773578845
1023.1798259999999,122287.3410439836
1014.5608390000001,128257.7978628066
1006.0935529999999,134810.26058439908
997.774265,142065.1965370345
989.5993858999999,150135.29716452636
981.5654412999999,158532.24552003475
973.6690651,167392.7117372617
965.9069952,176601.42140588784
958.2760697000001,185942.77718279892
950.7732231000001,195126.72964501125
943.3954827,204203.21487660593
936.1399648,213029.5690210332
929.0038716,221697.18424272226
921.9844879000001,230066.42879241038
915.0791782,237591.04156538608
908.2853836000002,245117.58878167075
901.6006193,252409.9645901697
895.0224714,260098.8539525404
888.548595,267168.2007853345
882.1767113,275367.9281228968
875.9046055,283718.7632887249
869.7301242999998,292775.96730573854
863.6511742999999,303573.3347885428
857.6657193,316072.4302364296
851.7717787,329808.2622913837
845.9674256000001,346463.01900752884
840.2507849,365957.5966702117
834.6200316000001,389016.73867399147
829.0733892000001,415794.6353467955
823.6091279,446596.32656419673
818.2255633999999,481002.1576271188
812.9210552000001,520586.49182616954
807.694005,563068.3777255801
802.5428559,609849.976983341
797.4660904,658941.0088126864
792.4622299,709872.476640992
787.5298327,764641.243799713
782.6674933999999,826666.7027837533
777.8738417999999,895818.594925903
773.1475413,977037.2939532144
768.4872882999999,1073468.0461433637
763.8918112000001,1192130.6530161526
759.3598692,1336307.8178780393
754.8902515999999,1508080.7466786953
750.4817767999999,1709338.018199613
746.1332914,1944769.2357276026
741.8436694000001,2202374.121438965
737.6118116,2485420.5148228947
733.4366444,2779042.5466012517
729.3171195,3082637.099416168
725.2522127999999,3386272.6858504056
721.2409241,3696282.291767152
717.282276,4004744.907587478
713.3753136,4298733.3093634285
709.5191037000001,4579141.79794676
705.7127343,4847461.239558954
701.9553139,5091110.111053484
698.2459709,5319342.106019171
694.5838534,5518054.8612229135
690.9681281000001,5677155.557042503
687.3979803,5802210.963775116
683.8726131,5895527.6816815315
680.3912472999999,5964003.583907785
676.9531202000001,6006282.451369887
673.557486,6032831.8127482375
670.2036149,6042905.75399475
666.8907926,6040922.788710607
663.6183202999999,6039994.153625665
660.3855139,6041691.156841522
657.1917038,6041545.7336451635
654.0362346,6040378.467365253
650.9184646000001,6041714.918510477
647.8377654,6042583.994370865
644.7935217999999,6041081.646446792
641.7851312999999,6042740.375447067
638.8120038,6041883.213830806
635.8735614,6042159.875160468
632.9692378999999,6041888.529007343
630.0984786,6042536.255648888
627.2607402000001,6040954.389982465
624.4554901,6041141.297654411
621.6822068,6042710.820953735
618.940379,6041887.194890256
616.2295054,6041563.751338596
613.549095,6041385.377758896
610.8986664,6041010.549018998
608.2777476,6041610.997033286
605.6858758999999,6041635.70496203
603.1225977000001,6041010.915463847
600.5874682,6041564.008715292
598.0800512,6041572.832218831
595.5999188999999,6041316.2530068485
593.1466518,6041222.206492677
590.7198384999999,6041945.26164981
588.3190752,6041484.796543969
585.943966,6041640.908048095
583.5941226,6041502.3325114865
581.2691637,6041256.258841061
578.9687155,6041630.346265473
576.692411,6041121.964914543
574.4398902,6041632.489312761
572.2107997,6041266.70537703
570.0047927,6041091.557891065
567.8215287,6041146.73140973
565.6606737000001,6041136.207884142
563.5218996,6041518.664720134
561.4048845,6041212.337734609
559.3093121,6041719.42805908
557.2348721,6041405.46573982
555.1812597,6040838.065520568
553.1481756000001,6041470.332989723
551.1353259,6041445.869101788
549.1424218999999,6041594.752351677
547.1691801,6041215.063957085
545.2153222000001,6041220.477533023
543.2805745000001,6041892.803425639
541.3646685,6041687.901969937
539.46734,6041241.729791381
537.5883299,6041547.708088635
535.7273833,6041831.6267424775
533.8842498,6041337.95825496
532.0586836,6041522.491431985
530.2504428000001,6041784.9416679
528.45929,6041090.670936631
526.6849915,6041525.665297228
524.927318,6041203.010929851
523.186044,6041353.030412028
521.4609475999999,6041368.308610776
519.7518110000001,6041637.148216773
518.0584200000001,6041646.926986721
516.3805639,6041399.925351542
514.7180356,6041316.136780964
513.0706316000001,6041345.81015134
511.43815149999995,6041288.946934967
509.82039860000003,6041156.31558017
508.2171791999999,6041516.214159203
506.628303,6040831.611622544
505.05358269999994,6041668.041827244
503.4928341,6040869.016091758
501.9458762,6041159.290492613
500.41253059999997,6041576.65229308
498.8926222,6041721.9179782625
497.3859785,6040995.691106004
495.89242989999997,6041063.415514522
494.4118094,6041329.871981367
492.943953,6041716.296837643
491.488699,6041565.039172428
490.04588839999997,6041517.0279478375
488.6153648,6041393.3428245075
487.19697429999997,6041814.131863726
485.7905654,6041181.804757679
484.39598889999996,6040947.58723098
483.01309800000007,6041430.448478607
481.64174840000004,6041096.271209543
480.28179789999996,6041141.568059224
478.93310639999993,6041346.656225235
477.59553619999997,6041777.3139253
476.2689517,6041083.237671779
474.9532192,6041188.4212282365
473.6482074,6041356.024445208
472.35378679999997,6041456.400843974
471.06982989999995,6041897.996265909
469.79621110000005,6041249.199154025
468.53280700000005,6041448.003817831
467.2794956999999,6041655.093440956
466.0361575,6041472.995752369
464.80267410000005,6041049.049099257
463.5789295,6041518.569713331
462.364809,6041158.218390529
461.1601998,6041167.847292987
459.9649909,6041547.696631706
458.7790727,6041692.466348402
457.6023374,6041829.4683182975
456.4346788,6041320.072067812
455.2759921,6041543.6233111685
454.12617439999997,6041422.236638831
452.9851239,6041276.951148028
451.85274060000006,6040638.149242988
450.7289258,6036306.225575018
449.6135822,6026047.081539231
448.5066141,6006613.169402741
447.407927,5976781.767616183
446.317428,5935134.277435366
445.23502520000005,5878218.028737264
444.1606283,5805956.915219815
443.0941482,5717028.571245843
442.03549699999996,5615229.150290813
440.9845882,5504213.879360288
439.9413364,5385766.835134261
438.9056575,5263933.193599193
437.87746860000004,5138769.308629531
436.85668780000003,5013664.998867442
435.8432345,4889253.8045783965
434.83702930000004,4766259.757755399
433.83799369999997,4643867.846143225
432.84605039999997,4521419.747685703
431.8611232,4398315.47490735
430.8831369,4274487.86703455
429.9120175,4150739.688631543
428.94769169999995,4027693.723791222
427.9900874,3905368.615560126
427.03913370000004,3784138.7387749804
426.0947602,3664862.8238848792
425.1568978,3547079.674153103
424.22547829999996,3431290.377762728
423.3004343,3316933.5926484144
422.3816994,3204138.823961543
421.4692081,3092821.6369933374
420.56289569999996,2981730.202449753
419.66269850000003,2871174.8211634746
418.7685535,2761676.5490599815
417.8803987,2652142.653267189
416.9981727,2543817.0439262805
416.12181519999996,2435702.1230167784
415.25126639999996,2328911.783398381
414.38646760000006,2223055.8962843907
413.5273605,2118577.486975914
412.673888,2015808.8789951515
411.8259934,1915352.1417173604
410.9836208,1817479.161922529
410.14671519999996,1722522.5031515318
409.3152221,1630078.6731076224
408.48908789999996,1540614.2941412332
407.66825960000006,1453365.8757735675
406.8526847,1368353.370592447
406.0423117,1284969.6468509815
405.2370896,1202896.5406210904
404.43696800000004,1121794.5848376402
403.64189730000004,1041912.9340893736
402.8518283,963008.581238552
402.0667126,885724.6130476675
401.28650239999996,810387.9199839779
400.5111505,737758.9012584853
399.7406101,668602.6435134078
398.9748353,603508.1001355548
398.2137806,542932.0986048069
397.457401,487597.6507427493
396.7056521,437563.9975429383
395.9584903,393037.3809320762
395.2158722,353670.8366181928
394.4777551,319286.725194619
393.7440968,289821.8609160285
393.0148555,264763.0385740049
392.2899901,243491.61432312164
391.56946,225463.16119664477
390.853225,210230.02449906289
390.1412452,197169.85090696206
389.43348169999996,186000.66842000216
388.7298955,176253.13976895958
388.03044839999995,167427.38073930948
387.3351027,159300.74430988074
386.6438209,151822.12320095662
385.95656610000003,144902.65257252677
385.2733019,138349.44879906415
384.5939922,132151.13118807419
383.9186014,126296.51327657801
383.2470943,120723.11261356015
382.5794362,115419.63740045432
381.9155926,110371.01678166672
381.2555296,105488.72568361428
380.59921360000004,100753.04917988594
379.9466115,96182.05717522367
379.29769039999996,91758.2985281523
378.652418,87454.97518562642
378.0107622,83379.49603303924
377.37269130000004,79510.64118962569
376.73817410000004,75831.28386352077
376.1071796,72333.00101187346
375.47967719999997,69002.79497577364
374.8556368,65820.34461475741
374.2350283,62758.90477405845
373.6178223,59832.9674734749
373.0039896,56997.32959096959
372.3935012,54220.188417626436
371.78632860000005,51483.311256722845
371.1824436,48853.74430108311
370.5818182,46318.077396355664
369.98442489999996,43863.21866774992
369.39023629999997,41511.754289963865
368.7992255,39275.554303833196
368.2113658,37147.16415936134
367.6266307,35125.58315407075
367.0449943,33205.00805889282
366.4664305,31374.980168638467
365.89091410000003,29640.958723856398
365.3184196,27985.06054258613
364.7489221,26436.441181357124
364.18239689999996,24960.769888748477
363.61881960000005,23550.107785615026
363.058166,22211.95988767373
362.50041219999997,20941.5104151417
361.94553460000003,19750.0005655108
361.3935098,18601.703336136536
360.8443147,17524.606485078617
360.29792630000003,16482.413151139182
359.754322,15496.067831518198
359.2134795,14573.446098714761
358.6753765,13694.369072275877
358.1399912,12863.180951733708
357.6073018,12053.019770857154
357.077287,11289.022300925393
356.5499253,10554.960318088424
356.025196,9860.720334564334
355.50307799999996,9188.968625001451
354.983551,8535.574001279309
354.4665945,7926.91257671461
353.95218839999995,7335.892909271874
353.4403127,6782.4818725472205
352.9309478,6256.9552971940075
352.42407410000004,5760.4113981804785
351.9196722,5287.5169101381825
351.4177232,4860.072690351481
350.91820789999997,4445.2367610943975
350.4211078,4050.7660189825237
349.9264043,3689.932541202057
349.434079,3340.946840774929
348.9441137,3012.404733449363
348.45649060000005,2703.7733889849565
347.97119169999996,2420.8839293056844
347.48819960000003,2145.130660587962
347.0074967,1882.8182154030746
346.5290657,1645.2894196152042
346.0528897,1418.939369407588
345.5789517,1211.5484225674293
345.1072349,1015.5321794233388
344.6377228,837.465068861788
344.17039889999995,666.1643914628
343.70524710000007,526.8336775645934
343.24225110000003,391.34908780179086
342.7813952,289.26503998477716
342.32266339999995,193.58792677950962
341.8660403,122.5088335200643
341.4115102,76.79772535357178
340.959058,41.971420762459566
340.5086685,22.289112999924946
340.06032660000005,5.969173064381099
339.6140175,3.977731464370215
339.1697264,3.546374853543848
338.7274388,3.014567390502332
338.28714019999995,1.9271602125752412
337.8488164,2.850317774176081
337.41245310000005,-1.566459560636367
336.9780363,-0.4115451314156444
336.5455522,-0.5785707402820114
336.114987,-1.3093750289079658
335.686327,-2.009673049068499
335.2595588,-3.4805983675042023
334.834669,-1.3326605431126617
334.4116443,-0.3493130008114224
333.9904716,-2.6475729593229493
333.57113799999996,-1.678218677470099
333.1536305,-4.086018393899791
332.73793639999997,0.9549454318950612
332.32404310000004,0.793402588472932
331.91193799999996,1.376506137743896
331.5016088,-3.4973483916657275
331.0930432,3.2422648753501804
330.6862289,-3.1331987840795184
330.281154,0.3409418149315632
329.8778065,-1.4573609581122062
329.47617460000004,-1.8654129595220763
329.07624649999997,-0.058678093397680965
328.6780106,2.9194815962281586
328.2814555,-0.33949439774316115
327.88656960000003,2.7052239223243064
327.4933418,1.6943807267276592
327.1017607,-1.710195836421757
326.7118154,1.8798336139851413
326.32349480000005,3.4747462317314635
325.93678789999996,-3.964092757556348
325.5516841,4.399947101638131
325.16817260000005,2.6999218221987182
324.7862428,0.8748102833649827
324.40588419999995,0.4567344111956092
324.0270864,-3.5232661838439703
323.649839,2.3724762538746584
323.2741319,-4.38550656389454
322.8999548,-1.3179816611128845
322.5272977,-1.5940249037810346
322.1561508,1.2795161889830775
321.786504,-1.5977094498855409
321.4183476,-0.10755186483923833
321.0516719,3.0909827079389065
320.6864673,2.5943898600128787
320.3227243,-1.7748700808584754
319.96043330000003,-3.5439510848696423
319.5995851,0.5064809327270878
319.2401704,0.3115775493948201
318.8821799,0.4931473629207577
318.5256045,-0.907897844562335
318.1704352,-2.2955427703469
317.8166631,4.034631932228323
317.4642791,-0.6803058092653264
317.1132746,3.086632025756886
316.76364069999994,-0.19502519292599607
316.4153688,3.878866476504541
316.06845039999996,-3.205616074273411
315.72287689999996,-1.4946006052598808
315.37863980000003,0.3631586149650219
315.0357308,-3.5376161585778085
314.6941415,-0.4061876115326668
314.3538639,-1.7700462516002775
314.0148896,3.460068305921171
313.6772106,2.3986661858748493
313.3408189,-3.7712468681203313
313.00570639999995,0.3813153326236253
312.67186549999997,-3.28856454169734
312.33928810000003,-0.5379715789061408
312.0079665,2.9205145624751334
311.6778931,-1.8655610336238224
311.34906010000003,-2.1456820413067166
311.0214601,2.112240490849108
310.6950856,-1.6200776296927488
310.369929,-1.5663345018245651
310.04598300000004,1.532549528121084
309.7232403,1.80162382257565
309.4016935,3.3034208402850807
309.0813356,2.1861975042096184
308.7621594,2.0240478708018914
308.4441577,1.3864603184564914
308.1273236,-7.396145054849545
307.8116501,2.0406516964226924
307.49713019999996,-2.276524801917724
307.18375710000004,3.1282359556684423
306.871524,-1.0936287932960114
306.5604242,-4.019929140450014
306.2504509,0.6747153219054793
