wave,flux
1817.164934,-14.019056352531154
1790.1022050000001,3.0871869007734083
1763.812741,1.3138177386389405
1738.2646949999998,16.775041684523295
1713.427949,18.775233589444607
1689.273995,904.0618570521636
1665.7758310000002,2782.032089271675
1642.907862,5642.597494757234
1620.64581,9575.306951251774
1598.9666300000001,14498.390604567625
1577.8484310000001,20352.71475019838
1557.270407,27293.43919430326
1537.212767,35208.05806218851
1517.65668,42547.496233845
1498.5842089999999,49139.482614801374
1479.978265,54980.47254658489
1461.822555,59949.305072729665
1444.101535,64228.59165603055
1426.800368,67676.50437553988
1409.904887,70425.045201182
1393.401553,72362.50465781412
1377.2774220000001,74165.53094441832
1361.520115,76075.15136245854
1346.117782,78028.87045026477
1331.059081,79971.01301067721
1316.3331449999998,81936.65116104556
1301.92956,83939.27540995578
1287.838342,85854.28251534927
1274.049912,87712.76009630272
1260.5550779999999,89527.67910357878
1247.345017,91362.48285708348
1234.4112519999999,93105.03126010898
1221.74564,94932.27696977252
1209.340352,96674.1684625006
1197.187859,98395.47334882
1185.28092,100461.70640256011
1173.612564,102343.6161881633
1162.1760800000002,104427.50232356359
1150.9650060000001,106588.26236908113
1139.973115,108809.238729505
1129.194406,111060.90768309806
1118.623093,113496.52690736744
1108.253594,116068.02798793545
1098.0805269999998,118610.50341570721
1088.098695,121377.97610435485
1078.303081,124343.87429829506
1068.688841,127574.78187920008
1059.251295,131468.78682140374
1049.9859199999999,135910.0786435502
1040.8883449999998,141256.6907724687
1031.9543429999999,147479.3322691264
1023.1798259999999,154999.99013043655
1014.5608390000001,163845.5246850034
1006.0935529999999,173701.94327588138
997.774265,184746.97846821853
989.5993858999999,196183.93533265192
981.5654412999999,208332.8854223618
973.6690651,220361.61436509035
965.9069952,231815.54133734727
958.2760697000001,242894.68918399725
950.7732231000001,252566.4380657005
943.3954827,261032.428254286
936.1399648,268435.8144679743
929.0038716,274132.79780963017
921.9844879000001,279166.4753693152
915.0791782,283243.87523069745
908.2853836000002,286792.36080724694
901.6006193,290538.09006296605
895.0224714,294667.4964835136
888.548595,300228.4924756363
882.1767113,307794.1618293698
875.9046055,317702.6614488472
869.7301242999998,330251.0614110421
863.6511742999999,347021.50643661537
857.6657193,367135.16399218334
851.7717787,391609.2246029736
845.9674256000001,422633.1954409539
840.2507849,460750.27284699294
834.6200316000001,504501.38540866174
829.0733892000001,556904.9017099912
823.6091279,616024.225792794
818.2255633999999,682965.3442562593
812.9210552000001,753701.5441981452
807.694005,827273.934246627
802.5428559,902607.2367989236
797.4660904,977065.8546819198
792.4622299,1053722.7515454923
787.5298327,1130230.7121989129
782.6674933999999,1215895.356811564
777.8738417999999,1322286.2562366873
773.1475413,1454553.487211645
768.4872882999999,1625645.2674992294
763.8918112000001,1854158.6090766937
759.3598692,2140096.1475269743
754.8902515999999,2485450.708910089
750.4817767999999,2879344.861102355
746.1332914,3314586.2190446095
741.8436694000001,3768388.43820082
737.6118116,4217785.86750083
733.4366444,4644210.220757478
729.3171195,5028555.38201518
725.2522127999999,5341135.158238515
721.2409241,5588712.8414374925
717.282276,5774005.454664232
713.3753136,5898460.689291547
709.5191037000001,5977996.243130443
705.7127343,6020863.6573059615
701.9553139,6037494.256094793
698.2459709,6042424.3711197935
694.5838534,6040795.563278317
690.9681281000001,6038755.984599908
687.3979803,6041483.334986842
683.8726131,6041009.451856586
680.3912472999999,6040782.426280052
676.9531202000001,6040792.861779303
673.557486,6040725.862504528
670.2036149,6041171.8510476025
666.8907926,6041752.076735658
663.6183202999999,6040883.384915749
660.3855139,6041249.1015313
657.1917038,6042102.28477116
654.0362346,6042492.016403437
650.9184646000001,6039843.519195283
647.8377654,6040933.257181613
644.7935217999999,6040431.738638345
641.7851312999999,6040368.201375787
638.8120038,6041941.937317752
635.8735614,6043143.746381342
632.9692378999999,6039814.069227711
630.0984786,6043028.697428377
627.2607402000001,6041578.801973928
624.4554901,6042715.620404352
621.6822068,6040122.916954659
618.940379,6041961.424149423
616.2295054,6040721.884491432
613.549095,6041146.318543511
610.8986664,6041562.696161548
608.2777476,6041163.539120992
605.6858758999999,6041598.065576502
603.1225977000001,6041716.979137569
600.5874682,6040981.983373572
598.0800512,6041171.5329773985
595.5999188999999,6041890.647613727
593.1466518,6041422.00225745
590.7198384999999,6041079.463105739
588.3190752,6041700.022310942
585.943966,6041428.542149714
583.5941226,6041555.975362399
581.2691637,6041990.542244587
578.9687155,6041449.035329147
576.692411,6041113.982252581
574.4398902,6041494.098383621
572.2107997,6041347.893125154
570.0047927,6041565.64215204
567.8215287,6041210.804707625
565.6606737000001,6041565.47335222
563.5218996,6040904.500848362
561.4048845,6041401.059633845
559.3093121,6041955.631641389
557.2348721,6041218.114762437
555.1812597,6041392.056429276
553.1481756000001,6041317.295995847
551.1353259,6041351.638835121
549.1424218999999,6041632.665541017
547.1691801,6041543.127759875
545.2153222000001,6041324.523500555
543.2805745000001,6041322.4672881635
541.3646685,6041527.94198293
539.46734,6041457.311109746
537.5883299,6042078.254325374
535.7273833,6041510.034630229
533.8842498,6041144.968579018
532.0586836,6041552.76065094
530.2504428000001,6040917.552090001
528.45929,6041521.817118504
526.6849915,6041246.1215366665
524.927318,6041519.017312317
523.186044,6041795.923517135
521.4609475999999,6041304.303916415
519.7518110000001,6042229.347039903
518.0584200000001,6041352.0029474525
516.3805639,6041707.848427878
514.7180356,6041373.877109325
513.0706316000001,6041112.361962843
511.43815149999995,6041642.607653258
509.82039860000003,6041296.111433875
508.2171791999999,6041442.671965487
506.628303,6041475.995507069
505.05358269999994,6041090.4991087485
503.4928341,6041080.960277912
501.9458762,6041260.621477048
500.41253059999997,6041699.8911445625
498.8926222,6041432.366739333
497.3859785,6041193.781039239
495.89242989999997,6041898.123253128
494.4118094,6041248.164091787
492.943953,6041360.24005518
491.488699,6041604.842649613
490.04588839999997,6041285.532739922
488.6153648,6041623.83267093
487.19697429999997,6041631.453738968
485.7905654,6041266.641905357
484.39598889999996,6041289.98428364
483.01309800000007,6041683.6295230435
481.64174840000004,6041469.070719544
480.28179789999996,6041357.721406195
478.93310639999993,6041117.486770048
477.59553619999997,6041675.28219308
476.2689517,6041315.468157877
474.9532192,6040999.162238285
473.6482074,6041353.9485141225
472.35378679999997,6041636.3746088
471.06982989999995,6041426.484752889
469.79621110000005,6041471.091708159
468.53280700000005,6041827.3665213175
467.2794956999999,6041421.110926933
466.0361575,6041643.6973076025
464.80267410000005,6041797.684123605
463.5789295,6041263.095341565
462.364809,6041053.722626022
461.1601998,6041928.380413583
459.9649909,6041542.652553301
458.7790727,6041275.272108072
457.6023374,6041453.172513846
456.4346788,6041557.761900172
455.2759921,6041848.870324393
454.12617439999997,6041803.667759173
452.9851239,6041160.211276257
451.85274060000006,6041110.764870403
450.7289258,6041753.585836047
449.6135822,6040921.721005183
448.5066141,6041131.035179215
447.407927,6041016.568968381
446.317428,6041235.981883265
445.23502520000005,6041633.205274734
444.1606283,6041211.292641165
443.0941482,6041444.59232867
442.03549699999996,6041060.1998858815
440.9845882,6041454.756758043
439.9413364,6041668.746953166
438.9056575,6041545.823481157
437.87746860000004,6040821.141056555
436.85668780000003,6041530.114912714
435.8432345,6040752.13174502
434.83702930000004,6041868.1292670965
433.83799369999997,6041052.54394811
432.84605039999997,6037775.841479798
431.8611232,6028054.995364184
430.8831369,6007878.469646224
429.9120175,5972430.472234125
428.94769169999995,5917835.918928486
427.9900874,5839418.602619033
427.03913370000004,5733209.063648571
426.0947602,5595274.2204022985
425.1568978,5429035.746446742
424.22547829999996,5236797.423687862
423.3004343,5025196.728453035
422.3816994,4800669.960043137
421.4692081,4571114.130339006
420.56289569999996,4343987.132734288
419.66269850000003,4126124.716233455
418.7685535,3925669.9223552532
417.8803987,3744862.0548409764
416.9981727,3586006.412463426
416.12181519999996,3448248.6990758968
415.25126639999996,3329287.6139220293
414.38646760000006,3226452.865768604
413.5273605,3136164.0961227613
412.673888,3052239.143662122
411.8259934,2971042.707630709
410.9836208,2887325.539805509
410.14671519999996,2797515.731927342
409.3152221,2697959.4962331546
408.48908789999996,2586217.43360886
407.66825960000006,2461649.399117887
406.8526847,2324187.8325671973
406.0423117,2175140.5536018107
405.2370896,2016821.7337668738
404.43696800000004,1852228.6694908813
403.64189730000004,1684535.7996626138
402.8518283,1518474.2978982078
402.0667126,1357020.1304312835
401.28650239999996,1203896.1457018193
400.5111505,1061834.9262913195
399.7406101,932761.0970299608
398.9748353,817370.1981423758
398.2137806,716565.1842157983
397.457401,629723.5779602012
396.7056521,555934.4324752394
395.9584903,494124.4018048122
395.2158722,442219.5231182702
394.4777551,398910.0989512229
393.7440968,363288.9037916846
393.0148555,333865.0298549863
392.2899901,309535.92962750816
391.56946,289058.11281519
390.853225,271745.61690850486
390.1412452,256920.5323236589
389.43348169999996,244062.5321146127
388.7298955,232773.54905633087
388.03044839999995,222405.20271033296
387.3351027,212857.0394165045
386.6438209,203920.63620815144
385.95656610000003,195563.33816671133
385.2733019,187637.52229132058
384.5939922,180233.50835853876
383.9186014,173197.12704578775
383.2470943,166559.56848326098
382.5794362,160286.13002274392
381.9155926,154275.78508330035
381.2555296,148579.55009925758
380.59921360000004,143064.5612662975
379.9466115,137813.61383442342
379.29769039999996,132683.74340434885
378.652418,127760.97902332425
378.0107622,122955.56897199363
377.37269130000004,118410.09420350475
376.73817410000004,113978.92710445645
376.1071796,109638.82356113344
375.47967719999997,105470.20602148166
374.8556368,101391.76940551569
374.2350283,97447.02491219775
373.6178223,93609.09850574152
373.0039896,89796.43749386576
372.3935012,86047.7053506699
371.78632860000005,82324.86715130178
371.1824436,78698.80143770039
370.5818182,75159.44017236853
369.98442489999996,71655.50843349281
369.39023629999997,68229.30784000782
368.7992255,64856.51484969736
368.2113658,61592.28196306265
367.6266307,58377.68594246538
367.0449943,55316.59262141432
366.4664305,52300.83025294509
365.89091410000003,49392.78141989448
365.3184196,46577.7546153146
364.7489221,43871.67501881859
364.18239689999996,41297.742816423764
363.61881960000005,38872.40088806543
363.058166,36609.41104035556
362.50041219999997,34487.901145950185
361.94553460000003,32506.270317256636
361.3935098,30695.700594803428
360.8443147,29019.084430339466
360.29792630000003,27413.61671796904
359.754322,25888.665610719603
359.2134795,24373.822241060912
358.6753765,22880.71937201331
358.1399912,21449.484410704223
357.6073018,20059.75248914124
357.077287,18655.54314777188
356.5499253,17278.41781569766
356.025196,15996.469473836618
355.50307799999996,14800.120751588916
354.983551,13722.45046108816
354.4665945,12753.352544132571
353.95218839999995,11849.014094404
353.4403127,11033.127338654856
352.9309478,10307.0477072135
352.42407410000004,9664.04673627313
351.9196722,9050.400542248988
351.4177232,8478.856992840341
350.91820789999997,7905.739845943883
350.4211078,7354.106703999622
349.9264043,6807.543092176317
349.434079,6253.671853916908
348.9441137,5689.340121234801
348.45649060000005,5116.854265260379
347.97119169999996,4535.721099091984
347.48819960000003,3957.3781381606486
347.0074967,3409.87026778332
346.5290657,2869.949053585551
346.0528897,2349.294908824748
345.5789517,1879.08664527966
345.1072349,1441.757946680907
344.6377228,1069.5272001423461
344.17039889999995,764.1237341190831
343.70524710000007,522.7396807572392
343.24225110000003,331.22728915291214
342.7813952,191.8512315016248
342.32266339999995,107.90975125834022
341.8660403,45.65156032961778
341.4115102,27.13616030640746
340.959058,12.028896698155775
340.5086685,5.286262710229237
340.06032660000005,2.8698003691126734
339.6140175,1.1229141387907249
339.1697264,-2.5277714304041785
338.7274388,-2.8902330103160088
338.28714019999995,0.7410684970335043
337.8488164,-3.672678430596064
337.41245310000005,3.7921522255764484
336.9780363,-0.29391434154731594
336.5455522,-0.011600552970687052
336.114987,1.8651345875376029
335.686327,-5.443347383939813
335.2595588,1.696357334542187
334.834669,-0.2856085908999059
334.4116443,0.01813777170874361
333.9904716,-0.5280808823601201
333.57113799999996,3.538448882889996
333.1536305,-1.6806349257137658
332.73793639999997,0.5536605754559621
332.32404310000004,1.493638232235832
331.91193799999996,1.4665225393447738
331.5016088,1.6240618797952586
331.0930432,4.35940395283568
330.6862289,-4.758548915850333
330.281154,2.3671746437996304
329.8778065,1.0224080932838333
329.47617460000004,4.3918934824859965
329.07624649999997,-3.4402022136873405
328.6780106,2.9224046891054027
328.2814555,-1.845849505774376
327.88656960000003,0.4421137777460437
327.4933418,-0.4955253954980915
327.1017607,0.17497297912781312
326.7118154,0.5452751559905237
326.32349480000005,0.13081198746817718
325.93678789999996,0.14915758015778255
325.5516841,4.69650184073434
325.16817260000005,2.017499749759705
324.7862428,-0.5991603569705592
324.40588419999995,-0.6267118008904173
324.0270864,0.2058403703130871
323.649839,-4.401019625477676
323.2741319,0.6441932849984854
322.8999548,1.412164265854435
322.5272977,0.1300192067861324
322.1561508,0.6421768054660244
321.786504,2.0212569044079207
321.4183476,0.7666394335742559
321.0516719,0.15371215239784095
320.6864673,0.1520382271767145
320.3227243,3.845867107222442
319.96043330000003,2.9262495454134827
319.5995851,1.99525235724238
319.2401704,0.14324995705387505
318.8821799,-2.7318204054093584
318.5256045,2.9639772671640148
318.1704352,-2.120216045844673
317.8166631,-0.8683465267550198
317.4642791,2.3206541425128657
317.1132746,-4.063914723686539
316.76364069999994,-0.5345308811787097
316.4153688,1.2665443897864554
316.06845039999996,2.9241070082031557
315.72287689999996,1.5432235605085984
315.37863980000003,-0.702404747853165
315.0357308,1.5601227854707118
314.6941415,-0.9431921594010084
314.3538639,-1.5320431868823976
314.0148896,1.293036239788037
313.6772106,2.7015070806366888
313.3408189,3.3868038959116915
313.00570639999995,-1.0907253999784683
312.67186549999997,-0.948916282052612
312.33928810000003,-0.7737235942453808
312.0079665,0.41447825137151423
311.6778931,0.5276704958926243
311.34906010000003,0.6293279928070692
311.0214601,1.6195265456564751
310.6950856,1.653679425443548
310.369929,4.1546528545234915
310.04598300000004,1.7790935316140373
309.7232403,-2.076330372381181
309.4016935,2.503933553443814
309.0813356,2.635262399378773
308.7621594,-2.783674728427388
308.4441577,2.130731147674464
308.1273236,-3.9953246986826927
307.8116501,-2.9987737755513644
307.49713019999996,0.3714863942100055
307.18375710000004,-1.87003685318628
306.871524,-4.275033744560806
306.5604242,3.0484081332348283
306.2504509,0.3338285996732877
