wave,flux
1817.164934,-1.9762780886633595
1790.1022050000001,-0.4020618796066837
1763.812741,-3.1803476748659283
1738.2646949999998,19.792806341823887
1713.427949,56.469131893250704
1689.273995,148.53505683385413
1665.7758310000002,338.46569891788187
1642.907862,637.1081865659024
1620.64581,1107.6909583001975
1598.9666300000001,1767.0006738667319
1577.8484310000001,2677.0608645549464
1557.270407,3825.622084096937
1537.212767,5211.737057764061
1517.65668,6888.296309778495
1498.5842089999999,8755.918465747427
1479.978265,10835.92168456538
1461.822555,13048.643292235318
1444.101535,15372.855668757642
1426.800368,17787.76840885395
1409.904887,20228.793646837225
1393.401553,22748.938647341558
1377.2774220000001,25299.75927916526
1361.520115,27830.599641788765
1346.117782,30402.433685636315
1331.059081,33023.64086922859
1316.3331449999998,35724.087164773184
1301.92956,38409.19501740767
1287.838342,41171.793819819984
1274.049912,43909.4228742358
1260.5550779999999,46740.725347204825
1247.345017,49591.71606434484
1234.4112519999999,52396.24085823122
1221.74564,55348.84275447897
1209.340352,58147.28907092205
1197.187859,61159.983421642195
1185.28092,64108.687825653964
1173.612564,67159.3143994632
1162.1760800000002,70249.42032306964
1150.9650060000001,73350.49227736717
1139.973115,76485.51457171481
1129.194406,79721.28272022709
1118.623093,82898.47821786121
1108.253594,86205.98838511898
1098.0805269999998,89499.59712081557
1088.098695,92832.06307663867
1078.303081,96238.73588153653
1068.688841,99681.9239847972
1059.251295,103194.23641091301
1049.9859199999999,106828.10908976433
1040.8883449999998,110799.81745264684
1031.9543429999999,114722.43365826705
1023.1798259999999,119058.3764749597
1014.5608390000001,123658.78489488586
1006.0935529999999,128416.97392450293
997.774265,133625.06985427588
989.5993858999999,139063.1211352527
981.5654412999999,144769.93220324902
973.6690651,150718.92793996513
965.9069952,157122.51327601227
958.2760697000001,163533.79638753735
950.7732231000001,170106.0546232116
943.3954827,177084.36772803735
936.1399648,183947.23303214548
929.0038716,190915.50330034317
921.9844879000001,197983.25335248906
915.0791782,205178.24277590888
908.2853836000002,212203.0995932792
901.6006193,219364.09493026868
895.0224714,226647.70829543626
888.548595,234031.06317940872
882.1767113,241610.80480957415
875.9046055,249692.58986714532
869.7301242999998,258147.89893270817
863.6511742999999,267050.9252667539
857.6657193,276835.87061531463
851.7717787,287119.79838794324
845.9674256000001,298428.5112512873
840.2507849,311312.29475969553
834.6200316000001,325709.240456195
829.0733892000001,341200.2324523352
823.6091279,358648.37577692716
818.2255633999999,378128.2349888493
812.9210552000001,399393.45784118545
807.694005,423678.2883739166
802.5428559,448964.1080821319
797.4660904,476670.69012265024
792.4622299,506672.7202169335
787.5298327,540134.6174400337
782.6674933999999,575830.2864583642
777.8738417999999,617280.4938623776
773.1475413,663828.1647909726
768.4872882999999,716692.4430660872
763.8918112000001,779668.5006423279
759.3598692,855107.0241534113
754.8902515999999,941034.4746675885
750.4817767999999,1044321.6139406413
746.1332914,1161929.357888345
741.8436694000001,1294094.6451863288
737.6118116,1445850.9461611162
733.4366444,1609171.703028452
729.3171195,1782627.6827543275
725.2522127999999,1972948.6090487363
721.2409241,2170254.3747998644
717.282276,2380649.0374620645
713.3753136,2612533.0217829864
709.5191037000001,2866995.2781109763
705.7127343,3147592.9592182017
701.9553139,3453269.743348525
698.2459709,3773186.1073555
694.5838534,4111107.2099504326
690.9681281000001,4450377.624913191
687.3979803,4783375.72257656
683.8726131,5094661.828173459
680.3912472999999,5363916.612551804
676.9531202000001,5581799.36074439
673.557486,5752952.944421176
670.2036149,5873539.765112747
666.8907926,5960349.204085565
663.6183202999999,6012121.006741845
660.3855139,6035658.472749642
657.1917038,6040639.858373236
654.0362346,6042822.777854732
650.9184646000001,6042348.9795892285
647.8377654,6039561.337381544
644.7935217999999,6043444.837324764
641.7851312999999,6041725.041906172
638.8120038,6040630.692262428
635.8735614,6041671.713856364
632.9692378999999,6041028.549584597
630.0984786,6043651.643917583
627.2607402000001,6040368.171845688
624.4554901,6043404.011658295
621.6822068,6041070.9366771225
618.940379,6041324.169731572
616.2295054,6041628.045000803
613.549095,6041440.31958446
610.8986664,6041361.744980339
608.2777476,6041206.115904923
605.6858758999999,6041591.021820881
603.1225977000001,6041431.8075879775
600.5874682,6041692.377667857
598.0800512,6041755.93871152
595.5999188999999,6041562.9851905275
593.1466518,6041536.17638658
590.7198384999999,6041861.721337096
588.3190752,6041408.470594176
585.943966,6041005.163335719
583.5941226,6041420.282885263
581.2691637,6041657.539140614
578.9687155,6041636.9124354925
576.692411,6041384.65756244
574.4398902,6041359.703559965
572.2107997,6041506.382796031
570.0047927,6041879.117781679
567.8215287,6042049.229490132
565.6606737000001,6041273.473495471
563.5218996,6041482.126117535
561.4048845,6041312.814957676
559.3093121,6041284.550245478
557.2348721,6041477.864782455
555.1812597,6041441.685009372
553.1481756000001,6041699.0290032625
551.1353259,6041649.470505018
549.1424218999999,6041311.35504278
547.1691801,6041469.773748367
545.2153222000001,6041414.2685100185
543.2805745000001,6041255.252349002
541.3646685,6041591.030560475
539.46734,6041712.121785047
537.5883299,6041453.44523094
535.7273833,6041252.2238642825
533.8842498,6041202.435565766
532.0586836,6041687.80773169
530.2504428000001,6041406.02034272
528.45929,6041459.557511855
526.6849915,6041026.070490806
524.927318,6041705.3190546725
523.186044,6041616.0987184
521.4609475999999,6041504.394935701
519.7518110000001,6041133.920101763
518.0584200000001,6041423.685264826
516.3805639,6041337.370785568
514.7180356,6041298.35527762
513.0706316000001,6041211.239921636
511.43815149999995,6041364.862570947
509.82039860000003,6041118.676236761
508.2171791999999,6041738.20065131
506.628303,6041422.040321891
505.05358269999994,6041537.187195352
503.4928341,6041473.663757268
501.9458762,6041263.979534201
500.41253059999997,6041223.187531768
498.8926222,6041656.588262328
497.3859785,6041328.67058462
495.89242989999997,6041300.155478068
494.4118094,6041918.672323569
492.943953,6041510.788146452
491.488699,6041077.191568976
490.04588839999997,6041426.329292683
488.6153648,6041428.988919042
487.19697429999997,6041511.64845242
485.7905654,6041465.232095105
484.39598889999996,6041746.749990439
483.01309800000007,6040686.831231841
481.64174840000004,6040729.738582082
480.28179789999996,6041463.679535509
478.93310639999993,6041588.193331191
477.59553619999997,6041350.09727027
476.2689517,6041450.216925275
474.9532192,6041568.645092159
473.6482074,6041518.022413832
472.35378679999997,6041418.815452
471.06982989999995,6041163.329301732
469.79621110000005,6041421.820116754
468.53280700000005,6041223.190902539
467.2794956999999,6041150.949969867
466.0361575,6041371.5263568675
464.80267410000005,6041398.470319837
463.5789295,6041412.847622462
462.364809,6042018.885793718
461.1601998,6041240.6418055575
459.9649909,6041078.784035801
458.7790727,6041196.525073991
457.6023374,6041126.613295183
456.4346788,6041708.877098539
455.2759921,6041676.6902367985
454.12617439999997,6041548.153685693
452.9851239,6041593.094770568
451.85274060000006,6041462.018432537
450.7289258,6041249.9073259635
449.6135822,6039897.404065726
448.5066141,6032589.730262498
447.407927,6016625.34636642
446.317428,5988043.582167846
445.23502520000005,5944038.505362166
444.1606283,5881333.114024137
443.0941482,5797324.058992787
442.03549699999996,5689536.22248545
440.9845882,5556410.067487788
439.9413364,5405200.38780722
438.9056575,5237673.049894912
437.87746860000004,5060492.226758561
436.85668780000003,4875595.673730079
435.8432345,4686580.32329974
434.83702930000004,4498928.475156715
433.83799369999997,4314976.408189915
432.84605039999997,4136659.101857442
431.8611232,3965005.5651121438
430.8831369,3799584.933285365
429.9120175,3641500.8705147263
428.94769169999995,3490197.5123829558
427.9900874,3345232.4665959314
427.03913370000004,3208406.953073121
426.0947602,3077838.749415047
425.1568978,2953682.9031758737
424.22547829999996,2836037.624411675
423.3004343,2723449.6909639174
422.3816994,2615844.013625075
421.4692081,2512304.9601912517
420.56289569999996,2412132.3712306614
419.66269850000003,2314716.6415906744
418.7685535,2219201.9693905083
417.8803987,2125407.77948073
416.9981727,2032745.1627133288
416.12181519999996,1941052.5977760947
415.25126639999996,1849777.01934272
414.38646760000006,1759673.6593091188
413.5273605,1670854.892801872
412.673888,1583499.1287410874
411.8259934,1498505.0654244006
410.9836208,1416124.2462725819
410.14671519999996,1337076.9571066292
409.3152221,1261870.8458493156
408.48908789999996,1190547.259570607
407.66825960000006,1122829.321483357
406.8526847,1058981.6335020228
406.0423117,998243.8447426648
405.2370896,940222.9416227677
404.43696800000004,884347.2497959211
403.64189730000004,830152.6562566742
402.8518283,777171.0235533641
402.0667126,725126.8534588845
401.28650239999996,674003.997071231
400.5111505,623948.3844189047
399.7406101,575113.0882296526
398.9748353,528010.925928025
398.2137806,483017.43016574776
397.457401,440542.721095557
396.7056521,400873.9393480218
395.9584903,364416.6280060725
395.2158722,331278.14761318534
394.4777551,301613.7775481291
393.7440968,275269.42097718624
393.0148555,252305.80796965922
392.2899901,232298.34556306736
391.56946,215080.50603709204
390.853225,200157.48646004108
390.1412452,187228.3632222359
389.43348169999996,176035.96616574356
388.7298955,166164.12392565535
388.03044839999995,157318.5678599216
387.3351027,149293.067547474
386.6438209,141939.89383302515
385.95656610000003,135122.49710639784
385.2733019,128732.3844310092
384.5939922,122727.73015110305
383.9186014,117077.31063460794
383.2470943,111711.74029699038
382.5794362,106652.0589438766
381.9155926,101836.86069141746
381.2555296,97254.65833555954
380.59921360000004,92899.81899893607
379.9466115,88687.60351806766
379.29769039999996,84644.09389760907
378.652418,80798.67134084798
378.0107622,77044.86878931156
377.37269130000004,73462.9820069753
376.73817410000004,70009.7651699834
376.1071796,66642.92457744645
375.47967719999997,63408.784348604735
374.8556368,60286.24193148157
374.2350283,57237.3355231229
373.6178223,54303.27731522865
373.0039896,51452.35199542112
372.3935012,48673.8455439809
371.78632860000005,45999.21594790817
371.1824436,43443.725268858616
370.5818182,40954.51719726801
369.98442489999996,38580.98829364935
369.39023629999997,36328.79373847456
368.7992255,34148.284427216124
368.2113658,32088.111733535177
367.6266307,30156.588897233843
367.0449943,28316.635202874146
366.4664305,26579.62772251029
365.89091410000003,24919.204895310155
365.3184196,23364.849375397152
364.7489221,21910.976999027764
364.18239689999996,20530.72367520665
363.61881960000005,19231.8517113918
363.058166,18010.60321409408
362.50041219999997,16853.09098937767
361.94553460000003,15775.048299472437
361.3935098,14764.145557006215
360.8443147,13830.556585908911
360.29792630000003,12952.795586995591
359.754322,12127.181604818685
359.2134795,11360.866719999582
358.6753765,10638.218039355179
358.1399912,9955.473159173342
357.6073018,9320.672401615706
357.077287,8710.98352630147
356.5499253,8133.382698745047
356.025196,7582.8108142492765
355.50307799999996,7048.335236578091
354.983551,6558.045247958679
354.4665945,6073.369872528248
353.95218839999995,5623.181768161386
353.4403127,5190.2124234624025
352.9309478,4788.102480415701
352.42407410000004,4399.826966478311
351.9196722,4044.1204231167376
351.4177232,3695.7692353971343
350.91820789999997,3381.5142821452087
350.4211078,3078.948523200489
349.9264043,2791.5727307850198
349.434079,2534.2021491254177
348.9441137,2290.096094569912
348.45649060000005,2063.6753494389604
347.97119169999996,1857.0870845540342
347.48819960000003,1663.0895336120716
347.0074967,1484.9582932868295
346.5290657,1320.6422770703205
346.0528897,1163.8590705049166
345.5789517,1018.55733029184
345.1072349,884.8896305776607
344.6377228,755.2174795955582
344.17039889999995,641.1944072382956
343.70524710000007,530.5071052740548
343.24225110000003,423.91885251862465
342.7813952,333.82055721501564
342.32266339999995,253.91758128797588
341.8660403,189.04376891038967
341.4115102,132.47693242033165
340.959058,88.69736408854781
340.5086685,58.46663083985234
340.06032660000005,37.55509363812296
339.6140175,27.13580696004011
339.1697264,5.234816095929584
338.7274388,7.336421923684981
338.28714019999995,-3.866469996251445
337.8488164,-0.4000285615861737
337.41245310000005,1.1454713689559064
336.9780363,3.316563963194942
336.5455522,-0.6968445363143463
336.114987,-0.41222895140041294
335.686327,1.7463700009601966
335.2595588,1.8235614216146765
334.834669,-1.6830701801012635
334.4116443,3.2841452638150184
333.9904716,0.21400746124844
333.57113799999996,-1.7045718706259116
333.1536305,-1.2351385697073574
332.73793639999997,4.799663939565794
332.32404310000004,-5.4095499857688365
331.91193799999996,2.564924055750959
331.5016088,0.9334228597976794
331.0930432,-0.7225441354925983
330.6862289,-4.621715472288241
330.281154,3.2764306287125344
329.8778065,1.615213145503506
329.47617460000004,-1.4940255455752145
329.07624649999997,-2.176467777051101
328.6780106,-0.9662881430380542
328.2814555,-0.5723511787598372
327.88656960000003,0.5467973833573628
327.4933418,1.2637962849732347
327.1017607,4.34889164019665
326.7118154,3.0586425835038877
326.32349480000005,-2.3187207538902395
325.93678789999996,4.331910259190334
325.5516841,-1.559089441875798
325.16817260000005,-4.185838104390792
324.7862428,0.8377908785768908
324.40588419999995,-0.0973665853327713
324.0270864,0.26505531624599465
323.649839,0.2896675271606736
323.2741319,-2.809643737437697
322.8999548,1.7874239608952334
322.5272977,1.6584677146982842
322.1561508,-3.505877285233107
321.786504,2.3122270971331544
321.4183476,-3.1890197791806782
321.0516719,0.4489173631630898
320.6864673,-1.5936968786771322
320.3227243,-0.11591950960557496
319.96043330000003,-1.8139510099611096
319.5995851,4.161480535385486
319.2401704,1.3380811059183435
318.8821799,1.889845219180741
318.5256045,1.0874967133296691
318.1704352,4.851945515170055
317.8166631,-1.8461859347907577
317.4642791,4.404145181247935
317.1132746,-2.1233117556693317
316.76364069999994,0.2448753119066927
316.4153688,-2.003225536881386
316.06845039999996,0.5810611871145703
315.72287689999996,-0.4068176126011153
315.37863980000003,1.6978131489707082
315.0357308,1.009034779181722
314.6941415,4.1318836215931
314.3538639,1.6248013875975071
314.0148896,0.14419869033545188
313.6772106,0.13762107081010286
313.3408189,-1.1501217707118097
313.00570639999995,0.5349337258823206
312.67186549999997,-1.019782079420873
312.33928810000003,1.9481592336287457
312.0079665,4.456112087787403
311.6778931,1.6170968783478523
311.34906010000003,-2.350691296270057
311.0214601,0.23799079081431426
310.6950856,-0.4239774529882033
310.369929,-0.07141780498185857
310.04598300000004,-4.840399091355977
309.7232403,-1.2752193921813162
309.4016935,1.0598195750871338
309.0813356,-2.3235568006549108
308.7621594,-0.39657556393141
308.4441577,-0.8669667145059036
308.1273236,0.2233642140341881
307.8116501,5.070967125428652
307.49713019999996,-2.614542803958274
307.18375710000004,-2.9928407112244124
306.871524,0.2745163564236349
306.5604242,-1.263817763014076
306.2504509,-2.603357510680126
