wave,flux
1817.164934,9.899215438276897
1790.1022050000001,0.9125794486870896
1763.812741,26.866520114803386
1738.2646949999998,79.50221935241096
1713.427949,229.3000683542435
1689.273995,650.1436261723467
1665.7758310000002,1499.3952857474856
1642.907862,2946.2677897597573
1620.64581,5151.071183803801
1598.9666300000001,8179.382048841187
1577.8484310000001,12149.799057157563
1557.270407,17113.74180074769
1537.212767,23079.68020070505
1517.65668,29900.435628391177
1498.5842089999999,37383.9323748751
1479.978265,45068.64374866039
1461.822555,52946.8807654868
1444.101535,60858.615127545236
1426.800368,68458.45803167167
1409.904887,75787.24848429079
1393.401553,82661.17839268468
1377.2774220000001,89112.89842166586
1361.520115,95214.43785771918
1346.117782,100755.06363958918
1331.059081,106274.4871531496
1316.3331449999998,111514.343266514
1301.92956,116555.38590213
1287.838342,121527.4783197268
1274.049912,126377.0466224108
1260.5550779999999,130971.27041062336
1247.345017,135688.43009781474
1234.4112519999999,140309.83738924362
1221.74564,145097.76683561568
1209.340352,149638.49592961752
1197.187859,154398.4987975545
1185.28092,159033.7084152226
1173.612564,163433.26301516595
1162.1760800000002,167983.21486115482
1150.9650060000001,172421.60697585234
1139.973115,176821.95252110236
1129.194406,180884.80006769008
1118.623093,185104.05955398586
1108.253594,189137.11610451073
1098.0805269999998,193106.63488285575
1088.098695,197316.11389629246
1078.303081,201320.18222509642
1068.688841,205558.2131800697
1059.251295,209974.59416181827
1049.9859199999999,214955.54541847046
1040.8883449999998,220771.1033803292
1031.9543429999999,227074.0256771599
1023.1798259999999,234439.2358001219
1014.5608390000001,242899.57016488112
1006.0935529999999,252263.24026655476
997.774265,263166.57439673354
989.5993858999999,275167.04549947765
981.5654412999999,288526.41866405605
973.6690651,302264.83735253685
965.9069952,316855.49155086663
958.2760697000001,331461.9551541039
950.7732231000001,346242.4509811437
943.3954827,360991.4309463504
936.1399648,375498.55192946974
929.0038716,389266.55961370224
921.9844879000001,403099.8683101757
915.0791782,415741.3364418803
908.2853836000002,428080.6560973982
901.6006193,440214.7823104248
895.0224714,452337.623860737
888.548595,464837.3250078925
882.1767113,477922.76877106976
875.9046055,491648.8432833146
869.7301242999998,506981.51450420724
863.6511742999999,524162.8359093046
857.6657193,543002.4596410741
851.7717787,566751.0354966945
845.9674256000001,593117.2479963631
840.2507849,625348.6844795493
834.6200316000001,663611.84603829
829.0733892000001,706770.3995968009
823.6091279,758346.6062519355
818.2255633999999,816224.999582472
812.9210552000001,881019.6034455559
807.694005,953413.4648950469
802.5428559,1033035.6054296636
797.4660904,1119650.8175964756
792.4622299,1210512.8424401393
787.5298327,1307120.5875715858
782.6674933999999,1414761.027432477
777.8738417999999,1538595.040932009
773.1475413,1683746.8620332282
768.4872882999999,1852867.9245534542
763.8918112000001,2058021.2598748056
759.3598692,2309415.9860453964
754.8902515999999,2611579.4433216546
750.4817767999999,2952126.240580929
746.1332914,3335241.1594371437
741.8436694000001,3729206.802466922
737.6118116,4139960.3888422186
733.4366444,4541306.9413260715
729.3171195,4909740.20128008
725.2522127999999,5236417.3600778915
721.2409241,5495469.614037035
717.282276,5695686.909665003
713.3753136,5842066.764701312
709.5191037000001,5942529.994496684
705.7127343,6002961.795421163
701.9553139,6032029.766256902
698.2459709,6041741.401655228
694.5838534,6041195.263343982
690.9681281000001,6043308.9867118765
687.3979803,6041980.126535749
683.8726131,6042392.19278429
680.3912472999999,6040403.735884923
676.9531202000001,6044029.766847483
673.557486,6042011.663899115
670.2036149,6042292.76912119
666.8907926,6043841.35754193
663.6183202999999,6040959.255955217
660.3855139,6040656.419978683
657.1917038,6041906.851321051
654.0362346,6039959.224327967
650.9184646000001,6041644.188841966
647.8377654,6038877.3774849875
644.7935217999999,6041261.072108193
641.7851312999999,6040302.760481777
638.8120038,6041112.6304028
635.8735614,6040928.067063026
632.9692378999999,6040488.27205926
630.0984786,6040412.06924533
627.2607402000001,6039964.408830282
624.4554901,6041131.867690011
621.6822068,6043051.646739927
618.940379,6041704.885240045
616.2295054,6041741.007800172
613.549095,6041203.5781757925
610.8986664,6041078.677279122
608.2777476,6041951.217791484
605.6858758999999,6041906.0622390965
603.1225977000001,6041974.047581585
600.5874682,6041495.710224913
598.0800512,6041288.256247205
595.5999188999999,6041332.232393837
593.1466518,6041358.2557710875
590.7198384999999,6041591.380150802
588.3190752,6041130.717910743
585.943966,6040992.089253058
583.5941226,6041735.989118502
581.2691637,6041592.574158307
578.9687155,6042068.228120943
576.692411,6041281.782794602
574.4398902,6041579.114049767
572.2107997,6041411.424088745
570.0047927,6041754.799644511
567.8215287,6041764.126391606
565.6606737000001,6041128.618470217
563.5218996,6041772.837918498
561.4048845,6041359.610483635
559.3093121,6041366.212749409
557.2348721,6041310.600287862
555.1812597,6041713.393999793
553.1481756000001,6041219.626604822
551.1353259,6041289.262927247
549.1424218999999,6041103.246410585
547.1691801,6041514.636242586
545.2153222000001,6042049.84130428
543.2805745000001,6041282.623040869
541.3646685,6041333.900604922
539.46734,6041214.031087415
537.5883299,6041529.8027064875
535.7273833,6041104.393071874
533.8842498,6041600.616100738
532.0586836,6041403.192850761
530.2504428000001,6041022.427287823
528.45929,6041354.553905202
526.6849915,6041763.3132470725
524.927318,6041438.2857349785
523.186044,6041464.364151296
521.4609475999999,6041228.569749107
519.7518110000001,6041299.62890213
518.0584200000001,6041500.93075303
516.3805639,6040693.796179903
514.7180356,6023753.7128973575
513.0706316000001,5978516.252044547
511.43815149999995,5895407.918782378
509.82039860000003,5767222.950096495
508.2171791999999,5588504.382643687
506.628303,5354452.362522543
505.05358269999994,5062539.9584873235
503.4928341,4710478.6553144585
501.9458762,4327563.798824486
500.41253059999997,3934007.56241056
498.8926222,3548205.4248936274
497.3859785,3182322.665014897
495.89242989999997,2848118.439372302
494.4118094,2553194.19782746
492.943953,2303124.8234091857
491.488699,2102889.239676958
490.04588839999997,1941778.565325256
488.6153648,1810808.0763620557
487.19697429999997,1702970.487456723
485.7905654,1612545.6161078897
484.39598889999996,1534091.2673837403
483.01309800000007,1464759.59183145
481.64174840000004,1401588.518467139
480.28179789999996,1343081.4372262706
478.93310639999993,1287781.2068330613
477.59553619999997,1236098.935786243
476.2689517,1187589.0996359356
474.9532192,1142702.2806255764
473.6482074,1101442.4283866978
472.35378679999997,1064257.425873778
471.06982989999995,1030573.8265732931
469.79621110000005,999794.4369558124
468.53280700000005,971121.2972670808
467.2794956999999,943518.5248203564
466.0361575,916329.178042634
464.80267410000005,888997.2169304101
463.5789295,860782.2999526877
462.364809,831443.6553357791
461.1601998,801186.3756076306
459.9649909,769985.0323754519
458.7790727,738574.3066263099
457.6023374,707343.0728003236
456.4346788,676791.828205899
455.2759921,647251.6396345824
454.12617439999997,618969.2855700323
452.9851239,592074.1868108234
451.85274060000006,566613.4682160802
450.7289258,542655.2225255747
449.6135822,520030.6162928482
448.5066141,498466.5390168699
447.407927,477411.12519064173
446.317428,456891.36919552396
445.23502520000005,436657.2342920696
444.1606283,416662.246564512
443.0941482,397145.43588006287
442.03549699999996,378255.46226120414
440.9845882,359752.52509986405
439.9413364,342044.13115446444
438.9056575,325053.816792382
437.87746860000004,308952.5451371015
436.85668780000003,293958.8890549252
435.8432345,279928.48315678764
434.83702930000004,266671.8543261221
433.83799369999997,254232.41681451089
432.84605039999997,242479.59036839282
431.8611232,231407.48676990703
430.8831369,221013.8949127969
429.9120175,211319.7655839104
428.94769169999995,202174.82024762765
427.9900874,193380.08561526865
427.03913370000004,184965.85419685085
426.0947602,176937.2307219961
425.1568978,169246.39563582098
424.22547829999996,161883.05615393966
423.3004343,154777.35203470386
422.3816994,147718.9512209571
421.4692081,140794.45622205007
420.56289569999996,134034.32724747958
419.66269850000003,127404.55281866823
418.7685535,120811.81385158745
417.8803987,114179.79746699061
416.9981727,107503.14412363351
416.12181519999996,100750.25375942505
415.25126639999996,94130.85688369443
414.38646760000006,87587.5269314483
413.5273605,81277.55594466873
412.673888,75114.77360253525
411.8259934,69111.88134280464
410.9836208,63247.49561404812
410.14671519999996,57529.894846275274
409.3152221,51895.117245113855
408.48908789999996,46324.37440170872
407.66825960000006,40696.15277009775
406.8526847,35012.327811946896
406.0423117,29432.712185978584
405.2370896,24121.259588564437
404.43696800000004,19222.026741666898
403.64189730000004,14820.699099753603
402.8518283,11044.7352445724
402.0667126,7895.386954492767
401.28650239999996,5443.043229262221
400.5111505,3638.469530852445
399.7406101,2367.5662614014773
398.9748353,1517.0708223640936
398.2137806,967.7031753945308
397.457401,627.0672895056258
396.7056521,407.91752246980246
395.9584903,293.10549683305555
395.2158722,206.4431816881511
394.4777551,150.6173216586621
393.7440968,112.4146208249263
393.0148555,76.23542149630127
392.2899901,51.98641948167081
391.56946,29.084984906418907
390.853225,15.20828297828682
390.1412452,2.9532100055643093
389.43348169999996,-0.4746518591447962
388.7298955,4.749655936224966
388.03044839999995,0.4321170166581656
387.3351027,-2.2751490103815524
386.6438209,0.5697152616629908
385.95656610000003,0.8445474544364281
385.2733019,3.0419989810116586
384.5939922,-0.1836457998265743
383.9186014,-1.4494043385252544
383.2470943,1.787978542097019
382.5794362,1.2982376635645292
381.9155926,-4.848479377009412
381.2555296,-0.2573197667235023
380.59921360000004,1.7155245681043878
379.9466115,1.915723310209511
379.29769039999996,-3.5894257862658385
378.652418,-0.4118292954864621
378.0107622,-0.20282982913203995
377.37269130000004,1.4043998811167278
376.73817410000004,-0.22477476635064686
376.1071796,0.9513108130512801
375.47967719999997,6.920745710682953
374.8556368,-0.760399763832661
374.2350283,-1.9369298331592344
373.6178223,-3.9390623925406825
373.0039896,0.8241534682096024
372.3935012,3.6600191406978735
371.78632860000005,-4.0359206606651385
371.1824436,4.016728350401904
370.5818182,2.3775948377669183
369.98442489999996,9.245996974519745
369.39023629999997,-0.5545502271795089
368.7992255,-3.7495111756482213
368.2113658,-0.1052681309089951
367.6266307,1.3989102816549752
367.0449943,-4.3780746283384655
366.4664305,0.7254741088202411
365.89091410000003,-0.6312662503789781
365.3184196,0.5809809058164839
364.7489221,-1.8726866298869929
364.18239689999996,4.618645427170391
363.61881960000005,1.9790837851178595
363.058166,-0.19169092818561925
362.50041219999997,2.8319590439589435
361.94553460000003,-0.9713033564112122
361.3935098,1.511330798402473
360.8443147,0.3693308662245246
360.29792630000003,0.02678573931910639
359.754322,1.5438268962127268
359.2134795,-0.039970870915737255
358.6753765,0.6209066654193959
358.1399912,2.218436121117021
357.6073018,0.8807077385146488
357.077287,-1.6152832532865915
356.5499253,-2.1197267389827408
356.025196,2.116073714860889
355.50307799999996,-0.10156780512544113
354.983551,1.6490097120689684
354.4665945,0.872613181480873
353.95218839999995,2.8928890930169904
353.4403127,3.889749826725605
352.9309478,-4.657120333645214
352.42407410000004,-0.8291155599114025
351.9196722,-0.4688960277154259
351.4177232,-2.0886450685647757
350.91820789999997,3.835032653680922
350.4211078,0.5643130640305887
349.9264043,-1.6048670062323986
349.434079,-1.3240140079912184
348.9441137,4.181883599958319
348.45649060000005,-4.430159601785161
347.97119169999996,1.2335944431485917
347.48819960000003,4.123330509857738
347.0074967,0.8679331744410873
346.5290657,-1.4569789203176051
346.0528897,-0.3166691961304149
345.5789517,-2.963267982470163
345.1072349,-1.247285382157854
344.6377228,2.4183125746926897
344.17039889999995,-1.2453730506585203
343.70524710000007,0.6627977897120954
343.24225110000003,-1.2731847483254388
342.7813952,-2.5291037949951543
342.32266339999995,1.7989688655026257
341.8660403,-2.3251457114323992
341.4115102,-5.357474807156363
340.959058,1.5085858532284024
340.5086685,-2.3452299591131816
340.06032660000005,-3.099728159387842
339.6140175,2.0144138013500594
339.1697264,0.9891369931709164
338.7274388,2.9149582322299925
338.28714019999995,-4.535943150396367
337.8488164,-0.6126073304470084
337.41245310000005,-2.2275096823632805
336.9780363,1.0878146450538702
336.5455522,-0.12217958388717615
336.114987,-0.986262672401004
335.686327,-0.4558979243651775
335.2595588,-0.9672958620691492
334.834669,3.899119293918415
334.4116443,-1.7571820842724812
333.9904716,2.199709425013677
333.57113799999996,-0.6156136423252813
333.1536305,-1.0977534995191347
332.73793639999997,-0.27917888642021765
332.32404310000004,-1.2591823751328584
331.91193799999996,-2.5303985019223054
331.5016088,-1.5212136673382073
331.0930432,-2.612833932880509
330.6862289,1.6916071257328242
330.281154,1.105385226749
329.8778065,0.23809067786836335
329.47617460000004,-1.1842696550939928
329.07624649999997,2.0054980539600096
328.6780106,-0.6155341443454053
328.2814555,-1.8907692959260607
327.88656960000003,2.7300729312521894
327.4933418,-1.210073940558098
327.1017607,0.7657272142131183
326.7118154,0.006911681681948867
326.32349480000005,-0.07346467904925645
325.93678789999996,-0.722911797468445
325.5516841,-1.9672922231943573
325.16817260000005,1.1185350631281603
324.7862428,-0.14895968966338266
324.40588419999995,-4.099021398145016
324.0270864,2.729045665489251
323.649839,1.353580608983852
323.2741319,0.7188159667816985
322.8999548,-0.7209234325382293
322.5272977,4.889013756740013
322.1561508,1.9006342479527667
321.786504,0.474629382571435
321.4183476,0.3257170841086225
321.0516719,1.0484968127901433
320.6864673,0.3615895952704053
320.3227243,-0.7557890661118905
319.96043330000003,-1.5330780940650397
319.5995851,-7.069493713050597
319.2401704,-3.506420915492952
318.8821799,-3.3885037538605163
318.5256045,0.6135110102278757
318.1704352,-3.1835982354120698
317.8166631,-4.603447176624047
317.4642791,-0.7880608867893502
317.1132746,-1.0621802068108586
316.76364069999994,-0.05303677250866663
316.4153688,-5.1756415509403695
316.06845039999996,3.3651805695235324
315.72287689999996,4.069735148247226
315.37863980000003,-3.456101740422285
315.0357308,-0.3499846786638621
314.6941415,0.2596492768884716
314.3538639,-0.32436774220414705
314.0148896,0.5437830443235276
313.6772106,1.7140855310448635
313.3408189,4.413926545353951
313.00570639999995,1.2233727831739007
312.67186549999997,-0.4440319522942479
312.33928810000003,1.3858950669538608
312.0079665,-1.1106100140114883
311.6778931,-1.3281965887987544
311.34906010000003,-0.9825454456395876
311.0214601,-1.3096694562821476
310.6950856,-5.605125794459088
310.369929,-0.5250562404024518
310.04598300000004,1.0689974207394084
309.7232403,1.7773952387058214
309.4016935,-0.776449151272404
309.0813356,-3.0453974283221137
308.7621594,-0.2938073735557516
308.4441577,2.5007725302606767
308.1273236,4.256354869508826
307.8116501,2.8276262949662194
307.49713019999996,0.4935311451566448
307.18375710000004,1.4201615879711134
306.871524,-1.3461769078898185
306.5604242,2.4721732034103496
306.2504509,2.9712655861003845
