wave,flux
1817.164934,0.5390627173050343
1790.1022050000001,10.471913071936996
1763.812741,8.702190987446757
1738.2646949999998,28.246865396061
1713.427949,97.66152885226177
1689.273995,333.7761139146891
1665.7758310000002,992.7553900760753
1642.907862,2061.704863976513
1620.64581,3579.884551698324
1598.9666300000001,5658.369132370754
1577.8484310000001,8290.891965642391
1557.270407,11584.358668201166
1537.212767,15546.286549130835
1517.65668,19844.983051055704
1498.5842089999999,24376.903206605963
1479.978265,29012.99135787384
1461.822555,33776.4501221464
1444.101535,38573.04883530502
1426.800368,43247.063390053336
1409.904887,47738.182714318864
1393.401553,51996.053288807234
1377.2774220000001,56117.310585038744
1361.520115,60011.634546039015
1346.117782,63762.24329842159
1331.059081,67343.96316237382
1316.3331449999998,70766.5061154588
1301.92956,74319.9691624838
1287.838342,77851.81468441979
1274.049912,81501.52797230006
1260.5550779999999,85448.61321332432
1247.345017,89398.91063651549
1234.4112519999999,93530.03406733768
1221.74564,97921.37995425065
1209.340352,102379.72248823829
1197.187859,106806.63657268774
1185.28092,111119.27076756296
1173.612564,115347.25344943574
1162.1760800000002,119397.0895194974
1150.9650060000001,123497.91456506807
1139.973115,127034.22474256481
1129.194406,130561.6779793292
1118.623093,133976.40585919665
1108.253594,137210.05201010706
1098.0805269999998,140431.72930879027
1088.098695,143856.55772840165
1078.303081,147287.46474089223
1068.688841,150782.5853842964
1059.251295,154696.75296367976
1049.9859199999999,158682.81321595836
1040.8883449999998,163266.37408305006
1031.9543429999999,168199.51973429153
1023.1798259999999,173831.25304796165
1014.5608390000001,180150.31519830163
1006.0935529999999,186949.27802404072
997.774265,194548.7659161852
989.5993858999999,203102.715437255
981.5654412999999,212176.236499802
973.6690651,221486.33137666286
965.9069952,231619.67952518538
958.2760697000001,241995.8076735733
950.7732231000001,252487.07390066038
943.3954827,262692.7419781682
936.1399648,272990.6733398051
929.0038716,283188.20265543245
921.9844879000001,292657.79196544737
915.0791782,302053.71636284323
908.2853836000002,310936.26069145737
901.6006193,319490.0723179885
895.0224714,328255.39344724594
888.548595,336394.5697732321
882.1767113,345513.5489232494
875.9046055,355301.9657036078
869.7301242999998,366185.1533786503
863.6511742999999,378488.8811747125
857.6657193,392819.52765108924
851.7717787,409442.34704608365
845.9674256000001,429903.94456608506
840.2507849,452858.8060059387
834.6200316000001,479547.8792004129
829.0733892000001,512126.766735977
823.6091279,547765.488305802
818.2255633999999,588600.7690302088
812.9210552000001,634001.2533609198
807.694005,684965.7193655256
802.5428559,739042.1735467947
797.4660904,795928.9465016472
792.4622299,855383.1712735506
787.5298327,918644.5656085055
782.6674933999999,991235.0491026423
777.8738417999999,1071898.0997856588
773.1475413,1164100.1857838915
768.4872882999999,1276519.824455925
763.8918112000001,1413786.0442289924
759.3598692,1580089.715851594
754.8902515999999,1780832.0989793926
750.4817767999999,2015291.955297971
746.1332914,2286878.5760736214
741.8436694000001,2589480.6039455114
737.6118116,2918693.8205257026
733.4366444,3268461.348696212
729.3171195,3628256.897071205
725.2522127999999,3994694.2683912013
721.2409241,4342464.013937827
717.282276,4672390.764334398
713.3753136,4968662.748278895
709.5191037000001,5231085.359529949
705.7127343,5458111.89340391
701.9553139,5638568.188328647
698.2459709,5774513.164939703
694.5838534,5880118.085248465
690.9681281000001,5949042.2801484335
687.3979803,5995360.133211829
683.8726131,6019774.671417079
680.3912472999999,6037169.171901543
676.9531202000001,6041202.7343043415
673.557486,6040638.5233959565
670.2036149,6040037.599223494
666.8907926,6041101.042416657
663.6183202999999,6041967.822601742
660.3855139,6040566.504629535
657.1917038,6040319.548710084
654.0362346,6041517.3950525625
650.9184646000001,6040690.4726282265
647.8377654,6039328.12197904
644.7935217999999,6041407.890300552
641.7851312999999,6039908.390330514
638.8120038,6041362.057285657
635.8735614,6040605.130880958
632.9692378999999,6039761.518298446
630.0984786,6042159.020282654
627.2607402000001,6042637.386060441
624.4554901,6040823.3239305075
621.6822068,6039990.233218203
618.940379,6041203.940988965
616.2295054,6041775.4974389365
613.549095,6041342.95877939
610.8986664,6041561.414834628
608.2777476,6041633.481942391
605.6858758999999,6041138.258897872
603.1225977000001,6041542.419146627
600.5874682,6041125.621720376
598.0800512,6041492.634214466
595.5999188999999,6041188.594822822
593.1466518,6041240.317911055
590.7198384999999,6041193.321464055
588.3190752,6041144.681800605
585.943966,6041317.918519509
583.5941226,6041666.7833612785
581.2691637,6041049.222744604
578.9687155,6040865.438307027
576.692411,6041645.823172042
574.4398902,6041440.400486501
572.2107997,6040816.315206197
570.0047927,6041469.414688209
567.8215287,6041561.871938503
565.6606737000001,6040783.518281077
563.5218996,6041391.695280806
561.4048845,6041450.035132915
559.3093121,6041227.978662066
557.2348721,6041762.009454366
555.1812597,6041461.089890919
553.1481756000001,6041088.278667098
551.1353259,6041455.973179781
549.1424218999999,6041706.53629389
547.1691801,6041314.914137472
545.2153222000001,6041643.374257548
543.2805745000001,6041639.318385764
541.3646685,6041350.896826425
539.46734,6041274.343679414
537.5883299,6041578.601003265
535.7273833,6041319.921644396
533.8842498,6041287.60405987
532.0586836,6041099.689760052
530.2504428000001,6041741.609742126
528.45929,6041045.890835367
526.6849915,6041128.269106641
524.927318,6041612.684590883
523.186044,6041190.482946795
521.4609475999999,6041462.2333518285
519.7518110000001,6041332.86678773
518.0584200000001,6041157.369279856
516.3805639,6041796.9711377965
514.7180356,6041161.369149732
513.0706316000001,6041035.57358154
511.43815149999995,6041613.479528396
509.82039860000003,6041688.898284059
508.2171791999999,6041844.577089207
506.628303,6041921.7065744065
505.05358269999994,6041444.873455191
503.4928341,6041534.50158026
501.9458762,6041418.615936745
500.41253059999997,6041011.129107722
498.8926222,6041563.677387778
497.3859785,6041165.443576017
495.89242989999997,6041186.1992238965
494.4118094,6041266.429091775
492.943953,6041516.936770071
491.488699,6041382.512969437
490.04588839999997,6041339.323478652
488.6153648,6041789.664406062
487.19697429999997,6041159.8609531885
485.7905654,6041477.280042316
484.39598889999996,6041646.251964154
483.01309800000007,6041618.213652433
481.64174840000004,6041279.290292123
480.28179789999996,6041336.902777605
478.93310639999993,6041193.173898753
477.59553619999997,6040920.450882657
476.2689517,6041383.28735087
474.9532192,6041234.764574174
473.6482074,6041282.368142183
472.35378679999997,6041234.990995805
471.06982989999995,6041804.358156272
469.79621110000005,6041619.3336943975
468.53280700000005,6041064.73879524
467.2794956999999,6040878.476720743
466.0361575,6041897.89610033
464.80267410000005,6041277.203119225
463.5789295,6041602.075997886
462.364809,6041673.955536444
461.1601998,6041625.178636923
459.9649909,6041683.404504128
458.7790727,6041188.807530826
457.6023374,6041548.92650846
456.4346788,6041265.05207878
455.2759921,6041721.284204353
454.12617439999997,6041672.843615407
452.9851239,6041362.7433259925
451.85274060000006,6041540.405473443
450.7289258,6041454.095896643
449.6135822,6041273.704293027
448.5066141,6041277.865482902
447.407927,6041351.808390658
446.317428,6041602.883827332
445.23502520000005,6041463.460194605
444.1606283,6041857.098447165
443.0941482,6041478.575205793
442.03549699999996,6041153.096760015
440.9845882,6041233.836864107
439.9413364,6041858.566918703
438.9056575,6041584.604431602
437.87746860000004,6041355.3544058725
436.85668780000003,6041442.9867395535
435.8432345,6041073.8175331475
434.83702930000004,6041300.928419733
433.83799369999997,6041663.386143371
432.84605039999997,6041338.844197777
431.8611232,6041391.278448551
430.8831369,6041028.932602842
429.9120175,6041641.619317357
428.94769169999995,6041442.66425492
427.9900874,6041257.814575071
427.03913370000004,6040821.327643357
426.0947602,6041634.845040164
425.1568978,6041294.422782381
424.22547829999996,6041040.033730998
423.3004343,6041690.696787138
422.3816994,6041364.087561793
421.4692081,6041612.152062022
420.56289569999996,6041151.49594937
419.66269850000003,6041271.648952902
418.7685535,6041728.657555455
417.8803987,6040844.200917212
416.9981727,6041186.315557002
416.12181519999996,6041506.183932394
415.25126639999996,6041399.511775176
414.38646760000006,6041430.300823865
413.5273605,6041911.980129141
412.673888,6041645.890209397
411.8259934,6041553.56722705
410.9836208,6041333.243641892
410.14671519999996,6041486.3717434425
409.3152221,6040960.007923328
408.48908789999996,6041141.147933703
407.66825960000006,6041088.533347919
406.8526847,6041410.286749163
406.0423117,6041058.815708188
405.2370896,6041288.627268382
404.43696800000004,6038334.0818962185
403.64189730000004,6025852.327504511
402.8518283,5999470.24967759
402.0667126,5952650.237831293
401.28650239999996,5882055.085613378
400.5111505,5784374.99416392
399.7406101,5657873.215903957
398.9748353,5501330.098431765
398.2137806,5321315.492321043
397.457401,5129312.643444812
396.7056521,4937934.5091278935
395.9584903,4757332.635736259
395.2158722,4595848.132068508
394.4777551,4461081.93826737
393.7440968,4353725.275468928
393.0148555,4275419.693939882
392.2899901,4220600.097919438
391.56946,4179327.350830922
390.853225,4142626.719459354
390.1412452,4101494.04574191
389.43348169999996,4047891.7048332174
388.7298955,3978307.110460258
388.03044839999995,3889604.6453003087
387.3351027,3782680.102234982
386.6438209,3660860.952010895
385.95656610000003,3527905.2591008986
385.2733019,3388373.0793841095
384.5939922,3246539.3919441267
383.9186014,3107161.765212053
383.2470943,2971813.292412668
382.5794362,2843976.060593955
381.9155926,2724234.197791815
381.2555296,2612551.14203729
380.59921360000004,2510727.158606123
379.9466115,2418917.59932307
379.29769039999996,2339208.000021435
378.652418,2271654.44753808
378.0107622,2219442.8488892717
377.37269130000004,2182789.800721996
376.73817410000004,2164041.748896915
376.1071796,2162035.7951967963
375.47967719999997,2175939.198726408
374.8556368,2203435.659547343
374.2350283,2240717.187627213
373.6178223,2283921.017405616
373.0039896,2327669.7611575043
372.3935012,2367523.820263306
371.78632860000005,2399534.5060871937
371.1824436,2420616.938471591
370.5818182,2428245.5609851377
369.98442489999996,2422860.386940421
369.39023629999997,2405414.976837892
368.7992255,2377647.967821266
368.2113658,2342606.5967192976
367.6266307,2303307.660717532
367.0449943,2263164.570267752
366.4664305,2224444.373658133
365.89091410000003,2188587.809707842
365.3184196,2156460.9938312247
364.7489221,2127998.181297169
364.18239689999996,2102352.259792244
363.61881960000005,2078672.9868515527
363.058166,2055128.5766858328
362.50041219999997,2031223.4744983108
361.94553460000003,2005932.4807525163
361.3935098,1979384.152427653
360.8443147,1951712.3854764719
360.29792630000003,1923745.7245672212
359.754322,1895890.095057843
359.2134795,1869292.8374686504
358.6753765,1844639.34043641
358.1399912,1822111.6710791732
357.6073018,1801584.90646456
357.077287,1782150.351078293
356.5499253,1763629.067498659
356.025196,1745344.1422851302
355.50307799999996,1726836.7892382718
354.983551,1707519.3498158832
354.4665945,1688205.621476495
353.95218839999995,1669217.2300878272
353.4403127,1651742.758536917
352.9309478,1636505.7743031343
352.42407410000004,1624494.4732970363
351.9196722,1616470.1793373742
351.4177232,1612783.218816279
350.91820789999997,1612962.404288681
350.4211078,1616435.0665640312
349.9264043,1621946.7620914348
349.434079,1627950.0950210346
348.9441137,1633131.6328397843
348.45649060000005,1636008.1153078312
347.97119169999996,1635936.2064504132
347.48819960000003,1631959.2196528732
347.0074967,1623767.5857622374
346.5290657,1611829.9976732559
346.0528897,1596542.4384037496
345.5789517,1578611.713842267
345.1072349,1558535.1040364152
344.6377228,1537620.4256029432
344.17039889999995,1516177.4670551326
343.70524710000007,1494967.4815264498
343.24225110000003,1474304.7201098772
342.7813952,1454122.5072154969
342.32266339999995,1434343.3493865072
341.8660403,1415065.196512746
341.4115102,1395321.4511138748
340.959058,1374736.0132215885
340.5086685,1353171.117585815
340.06032660000005,1329441.6230313021
339.6140175,1302705.5057590548
339.1697264,1272345.2743336358
338.7274388,1237486.045761847
338.28714019999995,1197461.406642443
337.8488164,1152030.6805572838
337.41245310000005,1100618.4269809811
336.9780363,1043688.558429408
336.5455522,981388.9662497285
336.114987,914855.5487715818
335.686327,845458.4247290643
335.2595588,774735.5720281502
334.834669,704191.6533194685
334.4116443,635402.9616414802
333.9904716,570315.7812446016
333.57113799999996,509689.48923957953
333.1536305,454764.95200278744
332.73793639999997,405862.04865504784
332.32404310000004,362861.35956392303
331.91193799999996,325437.8547604857
331.5016088,293242.94010527903
331.0930432,265345.10279040673
330.6862289,241171.9179384636
330.281154,219796.23211995946
329.8778065,200598.41651259267
329.47617460000004,183379.8290537136
329.07624649999997,167710.46385920956
328.6780106,153393.65553845352
328.2814555,140214.24071063314
327.88656960000003,128200.9146993998
327.4933418,117428.58436875045
327.1017607,107861.08467614556
326.7118154,99524.32571714224
326.32349480000005,92144.26857345193
325.93678789999996,85847.00990999938
325.5516841,80456.3141289099
325.16817260000005,75751.34558783215
324.7862428,71786.41075252056
324.40588419999995,68265.93429275144
324.0270864,65188.363073618566
323.649839,62497.30414882965
323.2741319,59938.623630274815
322.8999548,57637.283054019725
322.5272977,55433.29454192656
322.1561508,53387.82938707684
321.786504,51439.380380596085
321.4183476,49553.734479062274
321.0516719,47663.939760309855
320.6864673,45902.9056768995
320.3227243,44131.44749870145
319.96043330000003,42402.713548232416
319.5995851,40675.09980587754
319.2401704,38936.94335103249
318.8821799,37237.338296945636
318.5256045,35593.18612101285
318.1704352,34023.66674098925
317.8166631,32526.948960263373
317.4642791,31139.09043614909
317.1132746,29811.579916770293
316.76364069999994,28543.425539119653
316.4153688,27392.7296649336
316.06845039999996,26279.725581550225
315.72287689999996,25226.549673815578
315.37863980000003,24228.198075006432
315.0357308,23253.511001914576
314.6941415,22304.900016621817
314.3538639,21404.968833479696
314.0148896,20516.19628276209
313.6772106,19697.277650651875
313.3408189,18917.85465442175
313.00570639999995,18202.28452339656
312.67186549999997,17506.76234339594
312.33928810000003,16889.609469213607
312.0079665,16262.721645127356
311.6778931,15668.752352538058
311.34906010000003,15083.853667414087
311.0214601,14499.829072336806
310.6950856,13921.060211471766
310.369929,13312.070227883476
310.04598300000004,12711.329602950429
309.7232403,12118.149467964317
309.4016935,11522.392411086095
309.0813356,10965.312298738838
308.7621594,10405.169873386814
308.4441577,9881.549784730254
308.1273236,9376.195025214489
307.8116501,8874.290470763086
307.49713019999996,7334.309405554965
307.18375710000004,5957.3012762068565
306.871524,4722.3055717581265
306.5604242,3567.3295531375065
306.2504509,2520.503731660505
