wave,flux
1817.164934,-2.6696722344074915
1790.1022050000001,-0.7284162986813825
1763.812741,7.063981478345339
1738.2646949999998,65.57970853778811
1713.427949,138.85849289097374
1689.273995,1027.2996957577172
1665.7758310000002,3284.077721115756
1642.907862,6860.550654724154
1620.64581,11874.48038493278
1598.9666300000001,18379.636005042194
1577.8484310000001,26397.114405011802
1557.270407,35979.31501713724
1537.212767,46985.868595089094
1517.65668,58440.42370672308
1498.5842089999999,69131.93886888484
1479.978265,79177.57090289987
1461.822555,88426.346370424
1444.101535,96834.63164988076
1426.800368,104495.24353703225
1409.904887,111224.58747179336
1393.401553,116932.7347694919
1377.2774220000001,122112.60361512905
1361.520115,127269.69512964545
1346.117782,132536.51214955348
1331.059081,137743.38627018695
1316.3331449999998,143011.57671144506
1301.92956,148235.04049361506
1287.838342,153389.3066513751
1274.049912,158626.33592128786
1260.5550779999999,163945.71243692437
1247.345017,169104.89869425294
1234.4112519999999,174509.58498732225
1221.74564,179866.87336023673
1209.340352,185105.25413685173
1197.187859,190302.7789971431
1185.28092,195695.6937499052
1173.612564,200992.17124122955
1162.1760800000002,206576.33982878507
1150.9650060000001,211809.15950073785
1139.973115,217261.98029496786
1129.194406,222708.3027159601
1118.623093,228136.8152841594
1108.253594,233702.00677394177
1098.0805269999998,238937.22027294786
1088.098695,244409.02974320692
1078.303081,250073.77251165602
1068.688841,255966.3322161464
1059.251295,262380.9357685077
1049.9859199999999,269423.6293764027
1040.8883449999998,277754.35630007536
1031.9543429999999,287426.60253218433
1023.1798259999999,298889.8784770501
1014.5608390000001,311685.6067997934
1006.0935529999999,326267.41554830037
997.774265,342365.3037241614
989.5993858999999,360074.44174414483
981.5654412999999,378154.8984775713
973.6690651,397038.4506527968
965.9069952,415514.13136565
958.2760697000001,433752.1623641265
950.7732231000001,450377.8420522496
943.3954827,466291.25701333315
936.1399648,480219.1588608113
929.0038716,492393.1079104918
921.9844879000001,503578.44784656784
915.0791782,513791.9789828255
908.2853836000002,521924.757234796
901.6006193,531283.109656885
895.0224714,540152.9430820227
888.548595,552035.8626516125
882.1767113,564954.0111482702
875.9046055,581277.0049772355
869.7301242999998,602382.8470722247
863.6511742999999,626860.8342894438
857.6657193,658207.9422206136
851.7717787,695732.6217252591
845.9674256000001,740709.4272712638
840.2507849,796632.458430467
834.6200316000001,862368.3199916533
829.0733892000001,936259.3385876126
823.6091279,1024912.2462357944
818.2255633999999,1123406.9800776294
812.9210552000001,1226711.3973153615
807.694005,1338918.2969809598
802.5428559,1454430.1407736784
797.4660904,1574285.7399805328
792.4622299,1695590.5572373369
787.5298327,1825610.629183844
782.6674933999999,1974956.2884259885
777.8738417999999,2145466.1265318785
773.1475413,2361352.377481835
768.4872882999999,2620126.679058186
763.8918112000001,2930014.794715272
759.3598692,3282298.3251775214
754.8902515999999,3662008.9779327414
750.4817767999999,4064950.741842708
746.1332914,4472256.012177312
741.8436694000001,4858177.7961996095
737.6118116,5193011.267857433
733.4366444,5465343.642214132
729.3171195,5679405.139410659
725.2522127999999,5839775.58438038
721.2409241,5943995.775989843
717.282276,6005892.185288256
713.3753136,6036985.191793996
709.5191037000001,6041259.387300375
705.7127343,6043508.777042904
701.9553139,6045150.986160635
698.2459709,6041863.884310225
694.5838534,6042154.858379463
690.9681281000001,6039515.034372139
687.3979803,6042376.393757281
683.8726131,6040140.03351843
680.3912472999999,6039276.086312568
676.9531202000001,6041693.313122188
673.557486,6042286.022232433
670.2036149,6042336.508037774
666.8907926,6041917.238844028
663.6183202999999,6041131.598841889
660.3855139,6039405.8802122865
657.1917038,6040221.88428394
654.0362346,6040619.264006932
650.9184646000001,6042195.625134357
647.8377654,6040708.7829105025
644.7935217999999,6041907.315748214
641.7851312999999,6040858.346917927
638.8120038,6040145.462471972
635.8735614,6043212.339257028
632.9692378999999,6041448.656646924
630.0984786,6041521.234404342
627.2607402000001,6040841.364923042
624.4554901,6042014.632240633
621.6822068,6041249.041763577
618.940379,6041651.004219349
616.2295054,6041707.634908204
613.549095,6041468.453139869
610.8986664,6040674.40514049
608.2777476,6041466.862844397
605.6858758999999,6041374.245876783
603.1225977000001,6041094.71489106
600.5874682,6041242.519712253
598.0800512,6041553.580204826
595.5999188999999,6041297.798221469
593.1466518,6041245.358875465
590.7198384999999,6041191.339486132
588.3190752,6041247.95260307
585.943966,6041614.692505935
583.5941226,6041516.27836509
581.2691637,6041260.013273018
578.9687155,6041911.8719056025
576.692411,6041251.5727772135
574.4398902,6041413.391710502
572.2107997,6041273.393235236
570.0047927,6041285.925029293
567.8215287,6041517.777812819
565.6606737000001,6041355.896920073
563.5218996,6041396.597925073
561.4048845,6041370.144145128
559.3093121,6041600.033174497
557.2348721,6042064.636578597
555.1812597,6041052.169167466
553.1481756000001,6041543.124719079
551.1353259,6041119.369568798
549.1424218999999,6041722.450213915
547.1691801,6041684.829741622
545.2153222000001,6041589.838075507
543.2805745000001,6041572.760910635
541.3646685,6041655.201089808
539.46734,6041886.122478252
537.5883299,6041789.699770473
535.7273833,6041903.268270332
533.8842498,6041494.865964605
532.0586836,6041753.64400968
530.2504428000001,6041624.606225448
528.45929,6041713.849392584
526.6849915,6041645.893948424
524.927318,6041271.537673637
523.186044,6041680.5939011285
521.4609475999999,6041219.597641798
519.7518110000001,6041380.104078141
518.0584200000001,6041121.915453507
516.3805639,6041052.492886445
514.7180356,6041194.580001249
513.0706316000001,6041701.174994349
511.43815149999995,6041580.522182492
509.82039860000003,6041498.020285394
508.2171791999999,6041218.233143687
506.628303,6041256.830669928
505.05358269999994,6041568.117314988
503.4928341,6041711.9209572235
501.9458762,6041703.874139586
500.41253059999997,6041614.032064533
498.8926222,6041940.528631518
497.3859785,6041127.903026395
495.89242989999997,6041510.501529188
494.4118094,6041545.946904917
492.943953,6041660.3147868775
491.488699,6041399.0404183725
490.04588839999997,6041369.270324221
488.6153648,6040999.655293844
487.19697429999997,6041274.529416422
485.7905654,6041286.856555757
484.39598889999996,6041284.006812555
483.01309800000007,6041828.551021473
481.64174840000004,6041461.778033232
480.28179789999996,6041283.080039841
478.93310639999993,6040921.885036545
477.59553619999997,6041276.906261755
476.2689517,6041811.435127753
474.9532192,6041653.618990955
473.6482074,6041354.69128622
472.35378679999997,6041604.272092062
471.06982989999995,6041015.728002537
469.79621110000005,6041076.4498856515
468.53280700000005,6041478.471646781
467.2794956999999,6041408.380153787
466.0361575,6041889.413009132
464.80267410000005,6041681.204352858
463.5789295,6041541.571935237
462.364809,6041675.458117373
461.1601998,6041514.342972319
459.9649909,6041844.674642425
458.7790727,6040857.171477063
457.6023374,6041613.58566527
456.4346788,6041462.120580796
455.2759921,6041246.9211382475
454.12617439999997,6041169.538718131
452.9851239,6041580.3354896
451.85274060000006,6041647.904696471
450.7289258,6041584.7431239085
449.6135822,6041225.295676753
448.5066141,6041504.874789894
447.407927,6041234.02691542
446.317428,6041528.707292748
445.23502520000005,6041049.134051402
444.1606283,6041752.42845952
443.0941482,6041680.698102767
442.03549699999996,6041220.052686935
440.9845882,6040911.24735021
439.9413364,6035714.288735042
438.9056575,6023119.6091762325
437.87746860000004,5999072.3639720725
436.85668780000003,5961352.706891363
435.8432345,5906618.6508565275
434.83702930000004,5832727.314716132
433.83799369999997,5736322.498605267
432.84605039999997,5617148.12140193
431.8611232,5479925.161869641
430.8831369,5330093.0370380655
429.9120175,5172419.588730404
428.94769169999995,5012312.224781414
427.9900874,4854084.511806004
427.03913370000004,4703003.4538083635
426.0947602,4564309.474430273
425.1568978,4440723.3228016235
424.22547829999996,4334175.50867119
423.3004343,4244092.362716493
422.3816994,4169067.96527466
421.4692081,4107752.8209707285
420.56289569999996,4056653.1276140567
419.66269850000003,4011835.7737965537
418.7685535,3968767.354098045
417.8803987,3923345.29280758
416.9981727,3870467.712464082
416.12181519999996,3806651.8334469995
415.25126639999996,3730320.2349869614
414.38646760000006,3639638.769740721
413.5273605,3536494.4269897444
412.673888,3422919.48648011
411.8259934,3302038.2634093813
410.9836208,3177788.2009531325
410.14671519999996,3054869.526188156
409.3152221,2935926.225998505
408.48908789999996,2823653.7916796207
407.66825960000006,2719039.9486958287
406.8526847,2622158.979865431
406.0423117,2532346.309803355
405.2370896,2447432.882409726
404.43696800000004,2364808.866806236
403.64189730000004,2282562.6894278657
402.8518283,2198390.8384244423
402.0667126,2110494.72733019
401.28650239999996,2019213.9966358743
400.5111505,1923598.7429608763
399.7406101,1825611.075539185
398.9748353,1726434.384712077
398.2137806,1628694.0175877463
397.457401,1534062.9794701925
396.7056521,1445449.869461233
395.9584903,1364399.6137547328
395.2158722,1292978.3706014878
394.4777551,1231367.5441408316
393.7440968,1180455.199161985
393.0148555,1139431.5812876616
392.2899901,1107670.4718854618
391.56946,1083486.3782423546
390.853225,1065419.4068600577
390.1412452,1051460.0595568873
389.43348169999996,1039812.3424418323
388.7298955,1028737.3189462732
388.03044839999995,1017127.636437416
387.3351027,1003724.6256921898
386.6438209,988035.8240323436
385.95656610000003,969413.4153938821
385.2733019,947596.0209159346
384.5939922,922698.2337242421
383.9186014,894268.584653783
383.2470943,862680.6298438971
382.5794362,827889.081236981
381.9155926,789721.9011245393
381.2555296,748276.9922992622
380.59921360000004,703933.1370548012
379.9466115,656964.4762767177
379.29769039999996,607922.2994025794
378.652418,557854.4771635287
378.0107622,507324.1109722927
377.37269130000004,457566.1546728721
376.73817410000004,409621.17418342014
376.1071796,364394.10576761694
375.47967719999997,322604.9261376311
374.8556368,284819.2632657845
374.2350283,251269.64366683608
373.6178223,222103.6439029589
373.0039896,196951.4683916326
372.3935012,175654.88169179682
371.78632860000005,157889.92766273752
371.1824436,143025.96540581342
370.5818182,130519.63128973881
369.98442489999996,120066.12677330234
369.39023629999997,111121.36741342225
368.7992255,103585.87967104156
368.2113658,96975.7223432644
367.6266307,91169.66360044574
367.0449943,85998.21519620277
366.4664305,81308.71623149139
365.89091410000003,77046.54854826452
365.3184196,73196.67521919479
364.7489221,69660.4102057763
364.18239689999996,66399.63664848567
363.61881960000005,63402.492841409716
363.058166,60611.25434704862
362.50041219999997,58047.538620567415
361.94553460000003,55663.60487327485
361.3935098,53472.984139161774
360.8443147,51411.22331168993
360.29792630000003,49449.0993097056
359.754322,47560.045187348114
359.2134795,45785.952881497644
358.6753765,44072.947136138035
358.1399912,42387.27934473953
357.6073018,40725.26581398382
357.077287,39081.20116138037
356.5499253,37496.16164294075
356.025196,35910.47306949569
355.50307799999996,34371.85983512111
354.983551,32841.373861056556
354.4665945,31308.332905135507
353.95218839999995,29810.740975060187
353.4403127,28345.998839477816
352.9309478,26880.244988550097
352.42407410000004,25462.031622846906
351.9196722,24062.09609830755
351.4177232,22658.67195310937
350.91820789999997,21318.798561809144
350.4211078,20051.20046019749
349.9264043,18838.21196191812
349.434079,17705.756211083615
348.9441137,16647.815852480744
348.45649060000005,15652.632494901503
347.97119169999996,14764.148379400533
347.48819960000003,13944.111688769974
347.0074967,13171.710467654035
346.5290657,12462.802887823691
346.0528897,11776.270271512372
345.5789517,11119.581540562976
345.1072349,10501.78719848008
344.6377228,9900.980310119005
344.17039889999995,9293.208821282977
343.70524710000007,8705.490762338904
343.24225110000003,8141.292095537206
342.7813952,7598.7518567869065
342.32266339999995,7092.892631396479
341.8660403,6628.02463077508
341.4115102,6198.804674620378
340.959058,5809.178981119503
340.5086685,5475.087136732458
340.06032660000005,5173.490747638626
339.6140175,4901.425854674767
339.1697264,4659.809607729629
338.7274388,4440.707956182557
338.28714019999995,4234.931413623956
337.8488164,4034.180168615522
337.41245310000005,3841.356666721247
336.9780363,3640.5123998147637
336.5455522,3440.590806115333
336.114987,3241.7494825384656
335.686327,3032.957659052931
335.2595588,2822.1722741248986
334.834669,2612.436387043268
334.4116443,2399.5818627649724
333.9904716,2191.0533035000462
333.57113799999996,1998.5589937014145
333.1536305,1811.7228246311347
332.73793639999997,1625.4436678132065
332.32404310000004,1446.8095673119387
331.91193799999996,1279.009174553697
331.5016088,1116.931672594026
331.0930432,956.4268207163448
330.6862289,800.9777740052119
330.281154,647.6439363907488
329.8778065,503.20407307324274
329.47617460000004,381.80870466205
329.07624649999997,272.8855998354414
328.6780106,185.69549057527405
328.2814555,113.70955370638936
327.88656960000003,64.57599181558912
327.4933418,31.52569712982341
327.1017607,12.092710172477615
326.7118154,3.3268776829084774
326.32349480000005,-0.42781891371412095
325.93678789999996,-5.579265159624968
325.5516841,-1.0108718276730178
325.16817260000005,2.6898292701699305
324.7862428,-1.673673700542272
324.40588419999995,-0.7897021261001949
324.0270864,-3.5662298653687494
323.649839,0.5090364537283414
323.2741319,1.7649477669954066
322.8999548,-1.818863878612058
322.5272977,1.4924596254595124
322.1561508,-2.565293257579216
321.786504,2.6707122114630746
321.4183476,0.07085107352604865
321.0516719,-1.1601837034613485
320.6864673,-0.44255614848905933
320.3227243,1.328694256301311
319.96043330000003,1.3278148499274127
319.5995851,3.877540743778487
319.2401704,-0.5784049899967846
318.8821799,-0.2254022473508501
318.5256045,-0.3619528219573036
318.1704352,2.1305438202077767
317.8166631,1.1812224743552306
317.4642791,-0.5532191430332718
317.1132746,-3.712078258636109
316.76364069999994,-0.2667655270573407
316.4153688,2.0474541451692443
316.06845039999996,0.5209956452539876
315.72287689999996,0.11612305032052833
315.37863980000003,-0.834143394415773
315.0357308,-3.676223276297037
314.6941415,0.5362396210861454
314.3538639,0.5636321731485768
314.0148896,2.930056251277527
313.6772106,-2.437747872360835
313.3408189,-3.14472906188957
313.00570639999995,0.6749028621506884
312.67186549999997,-3.3708305072785563
312.33928810000003,2.5614390424195843
312.0079665,-0.4997581602927042
311.6778931,0.3124139280716355
311.34906010000003,0.008675000534504453
311.0214601,0.30054914747000955
310.6950856,-0.19746666911470573
310.369929,-3.9333838049876606
310.04598300000004,-2.068959173765299
309.7232403,-2.15941754480624
309.4016935,1.8935792455167535
309.0813356,1.130372813052105
308.7621594,-1.104287610202655
308.4441577,-1.2113251192461958
308.1273236,1.2277478191997209
307.8116501,0.10774473660535384
307.49713019999996,1.2198129353533294
307.18375710000004,-3.9990882703048802
306.871524,2.3905360554809008
306.5604242,-1.970861682229193
306.2504509,0.30118621758910263
