wave,flux
1817.164934,11.848435944898016
1790.1022050000001,27.508394171488238
1763.812741,15.992017039496476
1738.2646949999998,36.796269584264
1713.427949,140.10325581363614
1689.273995,1373.3839366557506
1665.7758310000002,4769.494377213232
1642.907862,10161.003275720435
1620.64581,17728.233713236474
1598.9666300000001,27290.17480607208
1577.8484310000001,38979.57633089447
1557.270407,52736.052450269846
1537.212767,68597.84347044608
1517.65668,84355.64278567609
1498.5842089999999,98536.7719859257
1479.978265,111315.21702639543
1461.822555,122658.60959386824
1444.101535,132339.12100690865
1426.800368,140686.14400428807
1409.904887,147333.77766941488
1393.401553,152477.58532623394
1377.2774220000001,157024.6587240292
1361.520115,161543.2999489297
1346.117782,165778.62634632742
1331.059081,169998.39274337227
1316.3331449999998,174105.38391637328
1301.92956,178141.40800002398
1287.838342,182052.00852669755
1274.049912,185916.15942006622
1260.5550779999999,189732.33388675167
1247.345017,193578.66920914035
1234.4112519999999,197445.07039205398
1221.74564,201566.17866183503
1209.340352,205648.6830941313
1197.187859,209627.1119270857
1185.28092,213778.85638819984
1173.612564,217993.53245568022
1162.1760800000002,222366.713370682
1150.9650060000001,226853.42650902495
1139.973115,231202.88939345238
1129.194406,235539.3230768748
1118.623093,239843.023532709
1108.253594,244203.0416735325
1098.0805269999998,248638.1798466396
1088.098695,252874.3211931708
1078.303081,257316.4112143139
1068.688841,262517.11103094177
1059.251295,268301.99506568786
1049.9859199999999,275453.99240375287
1040.8883449999998,284630.3377704413
1031.9543429999999,295517.0504578472
1023.1798259999999,308836.48850968765
1014.5608390000001,324889.6976833675
1006.0935529999999,343071.7971837836
997.774265,363210.37099981046
989.5993858999999,384735.9071604215
981.5654412999999,406896.9388699841
973.6690651,429394.2366755725
965.9069952,450990.35409862135
958.2760697000001,471001.4572116721
950.7732231000001,488668.2634213666
943.3954827,504400.6863156036
936.1399648,516788.26698054146
929.0038716,527628.2707243683
921.9844879000001,535590.826729986
915.0791782,541699.147841612
908.2853836000002,546779.4413706308
901.6006193,551639.9936973262
895.0224714,557984.0613238913
888.548595,566619.2795826488
882.1767113,578942.0827497917
875.9046055,595956.6803231228
869.7301242999998,618119.6751968962
863.6511742999999,646845.5384212042
857.6657193,686067.6305531798
851.7717787,733880.9440193006
845.9674256000001,793775.5458978466
840.2507849,868292.4188246549
834.6200316000001,957861.7872358316
829.0733892000001,1063627.6754370509
823.6091279,1185501.6397439635
818.2255633999999,1322418.4725080754
812.9210552000001,1471556.2511436047
807.694005,1627738.6563728831
802.5428559,1788762.8892640257
797.4660904,1947342.2562877315
792.4622299,2109716.834000946
787.5298327,2279506.925130178
782.6674933999999,2464673.831017357
777.8738417999999,2685927.111445546
773.1475413,2940063.6088695414
768.4872882999999,3235349.286038578
763.8918112000001,3561424.536695017
759.3598692,3916301.4138398035
754.8902515999999,4294805.425234148
750.4817767999999,4674882.646656779
746.1332914,5027581.218407349
741.8436694000001,5323091.510629018
737.6118116,5562875.163948952
733.4366444,5755305.333197982
729.3171195,5886795.957584205
725.2522127999999,5978271.84529982
721.2409241,6021103.776156277
717.282276,6042540.012047096
713.3753136,6039870.415105871
709.5191037000001,6043387.986987004
705.7127343,6041176.00867129
701.9553139,6039670.88942415
698.2459709,6043799.4237626325
694.5838534,6042988.179765899
690.9681281000001,6041989.285551496
687.3979803,6039988.602237362
683.8726131,6041678.826802367
680.3912472999999,6042047.677175966
676.9531202000001,6041058.03935615
673.557486,6041216.094849754
670.2036149,6042232.8890624875
666.8907926,6041410.138628217
663.6183202999999,6042755.36825299
660.3855139,6042746.633010552
657.1917038,6042938.64781677
654.0362346,6042348.378184223
650.9184646000001,6039600.942137749
647.8377654,6039232.717454973
644.7935217999999,6040612.496592643
641.7851312999999,6040447.732935023
638.8120038,6042497.694454421
635.8735614,6043594.402880587
632.9692378999999,6040180.30951485
630.0984786,6041465.93456357
627.2607402000001,6041364.895913943
624.4554901,6042419.538184786
621.6822068,6042237.234776338
618.940379,6041663.056032221
616.2295054,6040974.160214637
613.549095,6041488.096467367
610.8986664,6041428.071858651
608.2777476,6040955.681662887
605.6858758999999,6041856.5176979415
603.1225977000001,6041450.380262426
600.5874682,6041113.709145648
598.0800512,6041499.204467228
595.5999188999999,6041291.379277637
593.1466518,6041365.753381495
590.7198384999999,6041544.418003309
588.3190752,6041341.244084182
585.943966,6041145.7474361025
583.5941226,6041819.419337693
581.2691637,6040807.909416618
578.9687155,6041288.257707181
576.692411,6041530.3525920175
574.4398902,6041220.292357363
572.2107997,6041465.849152239
570.0047927,6041194.184671327
567.8215287,6041556.477560397
565.6606737000001,6041487.82061125
563.5218996,6040913.742952111
561.4048845,6041332.30137517
559.3093121,6041298.6571883615
557.2348721,6041515.100164394
555.1812597,6041471.68724731
553.1481756000001,6041383.556242951
551.1353259,6041344.428877939
549.1424218999999,6041212.269569422
547.1691801,6041406.151740649
545.2153222000001,6041926.722451159
543.2805745000001,6041172.232322318
541.3646685,6041188.211528637
539.46734,6041370.37968879
537.5883299,6041760.763600513
535.7273833,6041825.446175314
533.8842498,6040946.3782526115
532.0586836,6041283.295603971
530.2504428000001,6041524.723564434
528.45929,6041396.760638555
526.6849915,6041443.285522449
524.927318,6041990.480963168
523.186044,6041325.710577212
521.4609475999999,6041065.534151336
519.7518110000001,6041487.523084299
518.0584200000001,6041009.958463173
516.3805639,6041961.738908523
514.7180356,6041451.018149159
513.0706316000001,6041208.920830398
511.43815149999995,6041533.328363513
509.82039860000003,6041555.050729285
508.2171791999999,6041244.802908513
506.628303,6041203.519278471
505.05358269999994,6041430.768250734
503.4928341,6041041.218681181
501.9458762,6041444.896742943
500.41253059999997,6041512.381556356
498.8926222,6041228.664385553
497.3859785,6041510.109130902
495.89242989999997,6041351.432395723
494.4118094,6041758.3943691775
492.943953,6041463.142349399
491.488699,6041107.6361812325
490.04588839999997,6041345.1022959575
488.6153648,6041008.564476001
487.19697429999997,6041619.748732069
485.7905654,6041479.589664812
484.39598889999996,6041081.387720814
483.01309800000007,6041651.591563156
481.64174840000004,6041480.575058763
480.28179789999996,6041765.647680162
478.93310639999993,6041293.180448952
477.59553619999997,6041514.222244877
476.2689517,6041602.956067483
474.9532192,6041256.714001807
473.6482074,6041822.097202624
472.35378679999997,6041599.5028400915
471.06982989999995,6040683.271699248
469.79621110000005,6029928.608604191
468.53280700000005,6003635.623002048
467.2794956999999,5958375.0302906325
466.0361575,5891066.952215403
464.80267410000005,5799663.786909885
463.5789295,5682614.910060396
462.364809,5538605.433305887
461.1601998,5369002.670017993
459.9649909,5187948.854955043
458.7790727,5007413.593376515
457.6023374,4833037.228697266
456.4346788,4669046.812314317
455.2759921,4517454.061906547
454.12617439999997,4380607.70039557
452.9851239,4258407.6446555685
451.85274060000006,4150604.704671759
450.7289258,4049141.096328492
449.6135822,3948814.5786084076
448.5066141,3847866.159267451
447.407927,3744692.7089202018
446.317428,3641227.969489288
445.23502520000005,3538826.4525903245
444.1606283,3441861.415233725
443.0941482,3353699.618716512
442.03549699999996,3278286.163473482
440.9845882,3217090.1632845914
439.9413364,3171498.4818139733
438.9056575,3140787.7341833743
437.87746860000004,3120772.6352053643
436.85668780000003,3107887.9784540245
435.8432345,3095619.1172037073
434.83702930000004,3077818.846173572
433.83799369999997,3049890.4413865106
432.84605039999997,3006579.6224132585
431.8611232,2947547.9387113606
430.8831369,2872350.255227513
429.9120175,2782786.768482556
428.94769169999995,2682504.987200776
427.9900874,2575084.554504065
427.03913370000004,2465539.1070776912
426.0947602,2357687.113490191
425.1568978,2254965.3990097777
424.22547829999996,2160613.2395512653
423.3004343,2075966.1819708054
422.3816994,2002065.962675089
421.4692081,1939426.1283838653
420.56289569999996,1888139.265067555
419.66269850000003,1847781.5187475318
418.7685535,1817158.0314531403
417.8803987,1794876.09713217
416.9981727,1779686.8087261275
416.12181519999996,1769611.1590673216
415.25126639999996,1762712.4058882752
414.38646760000006,1757040.075615486
413.5273605,1750383.1454686157
412.673888,1741009.2389685214
411.8259934,1727087.807651419
410.9836208,1707668.3739342897
410.14671519999996,1681829.0936901881
409.3152221,1648737.2393028212
408.48908789999996,1608746.9152481663
407.66825960000006,1562169.4326561016
406.8526847,1509983.0376246811
406.0423117,1453552.630775454
405.2370896,1395070.112147753
404.43696800000004,1335388.0139847393
403.64189730000004,1277524.2259312414
402.8518283,1222732.716314745
402.0667126,1172844.5361259985
401.28650239999996,1129299.2985210607
400.5111505,1092358.234078143
399.7406101,1060363.2984452096
398.9748353,1032839.5696514136
398.2137806,1009126.4664382208
397.457401,987171.8030473484
396.7056521,965785.1351250504
395.9584903,943578.0185464568
395.2158722,919532.0791988119
394.4777551,892886.27986972
393.7440968,866990.0627348946
393.0148555,841750.6251889641
392.2899901,817127.1777121809
391.56946,794420.3327075113
390.853225,774131.6669257481
390.1412452,756407.9447558121
389.43348169999996,741055.0151525388
388.7298955,728352.0604954329
388.03044839999995,715856.6135705975
387.3351027,703255.9375038255
386.6438209,690435.3335046774
385.95656610000003,676501.8267119061
385.2733019,661157.733486334
384.5939922,644414.3741096413
383.9186014,626303.7903892779
383.2470943,607366.907789367
382.5794362,588004.3719301709
381.9155926,568732.593883085
381.2555296,550082.0693269728
380.59921360000004,532564.7741164665
379.9466115,516587.4133720583
379.29769039999996,502453.3705033793
378.652418,490167.3543961737
378.0107622,479681.6601557198
377.37269130000004,470676.71738050156
376.73817410000004,462826.4544283956
376.1071796,455762.58119157923
375.47967719999997,448828.2674384429
374.8556368,441656.9946899184
374.2350283,433904.18334299745
373.6178223,425413.38495370006
373.0039896,415718.79585357977
372.3935012,404937.9221780255
371.78632860000005,393063.85408600076
371.1824436,380194.27672498976
370.5818182,366470.2596109083
369.98442489999996,352026.2358006492
369.39023629999997,336964.7838406055
368.7992255,321565.8775048271
368.2113658,305968.4635786122
367.6266307,290159.3088362726
367.0449943,274392.74081148306
366.4664305,258662.3706306605
365.89091410000003,243064.9807160551
365.3184196,227750.3012161273
364.7489221,212559.8294492555
364.18239689999996,197672.8659493308
363.61881960000005,183144.6504177432
363.058166,168904.5966835515
362.50041219999997,155024.58573691006
361.94553460000003,141638.31789412932
361.3935098,128799.31936900516
360.8443147,116526.10653372026
360.29792630000003,104909.64479624447
359.754322,94138.96503327096
359.2134795,84174.2158019791
358.6753765,75057.96410424601
358.1399912,66889.16744879098
357.6073018,59617.20140611003
357.077287,53252.61215178827
356.5499253,47740.46789665422
356.025196,42999.56851571886
355.50307799999996,38960.787574136186
354.983551,35535.573543465514
354.4665945,32651.665857185875
353.95218839999995,30235.557685575048
353.4403127,28183.412693216764
352.9309478,26447.730034896176
352.42407410000004,24951.232680359702
351.9196722,23664.51701545956
351.4177232,22556.66203985138
350.91820789999997,21562.84297568986
350.4211078,20635.884659423416
349.9264043,19776.34448800552
349.434079,18959.38792042671
348.9441137,18189.199907804024
348.45649060000005,17450.183831671322
347.97119169999996,16731.451147444586
347.48819960000003,16031.926720467698
347.0074967,15341.996217633225
346.5290657,14680.620322551951
346.0528897,14049.821006829741
345.5789517,13452.298832587589
345.1072349,12876.409885269375
344.6377228,12340.339900243955
344.17039889999995,11815.315863357542
343.70524710000007,11327.9904785226
343.24225110000003,10880.245990660598
342.7813952,10461.413191404054
342.32266339999995,10062.185181814746
341.8660403,9679.972159772196
341.4115102,9298.47646525776
340.959058,8923.871022401347
340.5086685,8554.986140284525
340.06032660000005,8191.753981878896
339.6140175,7817.8257098999375
339.1697264,7440.791200417017
338.7274388,7084.987354106484
338.28714019999995,6734.513728482945
337.8488164,6408.4671915128865
337.41245310000005,6105.795155324358
336.9780363,5817.740435616134
336.5455522,5553.099168031193
336.114987,5295.775148565927
335.686327,5047.08976230925
335.2595588,4808.649545904899
334.834669,4584.320719830385
334.4116443,4352.60956440261
333.9904716,4126.9891215851
333.57113799999996,3905.4730839991857
333.1536305,3685.5868508696553
332.73793639999997,3480.5969646136823
332.32404310000004,3280.6476136759447
331.91193799999996,3102.3693289335138
331.5016088,2933.448078957511
331.0930432,2775.820605638624
330.6862289,2631.317931030956
330.281154,2503.06823436788
329.8778065,2381.64100605598
329.47617460000004,2266.4249241674884
329.07624649999997,2157.63020392726
328.6780106,2047.1424598585095
328.2814555,1932.3666136813104
327.88656960000003,1828.4175293587334
327.4933418,1717.5685631083252
327.1017607,1600.5697438923255
326.7118154,1496.67740381662
326.32349480000005,1393.658371361379
325.93678789999996,1280.9593438559752
325.5516841,1179.3880767906116
325.16817260000005,1088.331936831548
324.7862428,999.3870280733676
324.40588419999995,901.4460336916907
324.0270864,825.1169855127968
323.649839,750.6620623929011
323.2741319,671.8800781041798
322.8999548,610.6630741853303
322.5272977,542.4869795409484
322.1561508,483.3608747004545
321.786504,425.179550364402
321.4183476,378.03668017096163
321.0516719,327.9170373598266
320.6864673,283.7651092650741
320.3227243,244.86214294573918
319.96043330000003,203.9529184372813
319.5995851,165.03415180569885
319.2401704,138.54929680609584
318.8821799,113.85804002096864
318.5256045,89.45758152015057
318.1704352,66.55858707142525
317.8166631,53.92899121744564
317.4642791,39.745495382597
317.1132746,27.95576153044013
316.76364069999994,17.348148747740954
316.4153688,13.337987796350884
316.06845039999996,4.591434078444452
315.72287689999996,2.55731809586821
315.37863980000003,3.6384912337522857
315.0357308,0.5970916327596703
314.6941415,3.9865415003130846
314.3538639,7.262327324918228
314.0148896,-0.524157362954164
313.6772106,-3.427682084157527
313.3408189,-6.711896226476932
313.00570639999995,-3.7072731623680735
312.67186549999997,-0.2493542808146457
312.33928810000003,-5.598358095233296
312.0079665,-0.7506315704663793
311.6778931,5.402782663399779
311.34906010000003,2.037774957132956
311.0214601,-3.171486462529801
310.6950856,4.8275678303737815
310.369929,2.359927624175114
310.04598300000004,5.997820817649252
309.7232403,3.366510305011261
309.4016935,0.9171827775380896
309.0813356,-1.4649106687391154
308.7621594,1.6960840788128593
308.4441577,2.6536581375469717
308.1273236,4.973669972300772
307.8116501,0.6361132556270107
307.49713019999996,-0.4913416040694728
307.18375710000004,-0.9137046462643312
306.871524,-1.2500451117472982
306.5604242,-0.07023836451851995
306.2504509,-1.4234596638892254
