wave,flux
1817.164934,-11.301153446688499
1790.1022050000001,-1.0929336438460746
1763.812741,18.990616144858574
1738.2646949999998,73.90872511667828
1713.427949,203.166269538
1689.273995,560.3451497147616
1665.7758310000002,1217.1757095729813
1642.907862,2410.7786595658567
1620.64581,4127.214189847917
1598.9666300000001,6586.116207218542
1577.8484310000001,9745.938956967037
1557.270407,13788.428808810866
1537.212767,18674.630691243307
1517.65668,24174.72787644448
1498.5842089999999,30164.457396023903
1479.978265,36608.94357784749
1461.822555,43209.642657329045
1444.101535,50068.52070207244
1426.800368,56803.28838231336
1409.904887,63462.674453365165
1393.401553,69996.11119913896
1377.2774220000001,76337.62747476486
1361.520115,82622.49818539263
1346.117782,88901.07605514722
1331.059081,94985.38104829754
1316.3331449999998,101082.35486713024
1301.92956,107138.78536004382
1287.838342,113188.25515734465
1274.049912,119352.87816793875
1260.5550779999999,125297.16885387352
1247.345017,131156.70881867784
1234.4112519999999,137102.13405927346
1221.74564,142805.30267158663
1209.340352,148578.01276668062
1197.187859,154290.0113086869
1185.28092,159888.31906173474
1173.612564,165322.32322545882
1162.1760800000002,171092.7167552462
1150.9650060000001,176488.33243022324
1139.973115,181768.4225159964
1129.194406,187371.6446936002
1118.623093,192577.01978895013
1108.253594,197850.62294625232
1098.0805269999998,203306.9421559572
1088.098695,208501.07580523167
1078.303081,213639.73824648815
1068.688841,219151.40776822038
1059.251295,224438.69958784585
1049.9859199999999,230236.11181352966
1040.8883449999998,236298.76209291487
1031.9543429999999,242569.86756910305
1023.1798259999999,249885.7405580649
1014.5608390000001,257925.35980269645
1006.0935529999999,266621.54611316964
997.774265,276581.418749077
989.5993858999999,286960.5575255162
981.5654412999999,298073.2010489067
973.6690651,310275.8556126224
965.9069952,322911.6098791568
958.2760697000001,335683.8406988799
950.7732231000001,348775.7452972337
943.3954827,361859.211773962
936.1399648,374625.3159209114
929.0038716,387617.39196291077
921.9844879000001,399865.5993043146
915.0791782,412239.08083283243
908.2853836000002,423693.54738734453
901.6006193,435200.72815590573
895.0224714,447168.94872175826
888.548595,459553.2523277385
882.1767113,471637.0144418286
875.9046055,486182.16834320116
869.7301242999998,500580.2843577282
863.6511742999999,517062.77913115406
857.6657193,536157.5699922736
851.7717787,558182.7779469626
845.9674256000001,583629.0453399298
840.2507849,612715.4060539422
834.6200316000001,647302.4471171552
829.0733892000001,685661.4710011705
823.6091279,731251.5893892451
818.2255633999999,780865.1032178383
812.9210552000001,838100.0276816797
807.694005,901108.022609362
802.5428559,968070.0336984972
797.4660904,1043596.704757081
792.4622299,1122752.4386445659
787.5298327,1212128.7242842794
782.6674933999999,1309595.5225256977
777.8738417999999,1420602.7397047481
773.1475413,1547661.0406586984
768.4872882999999,1697396.8437801974
763.8918112000001,1880494.049789107
759.3598692,2101061.254062261
754.8902515999999,2361648.6619317965
750.4817767999999,2668879.5211949265
746.1332914,3018445.3833624036
741.8436694000001,3393530.7418702017
737.6118116,3792040.440904328
733.4366444,4189944.456351
729.3171195,4576713.047619501
725.2522127999999,4937117.028108635
721.2409241,5247152.11222162
717.282276,5498772.228955553
713.3753136,5694413.645172778
709.5191037000001,5838279.602325861
705.7127343,5934627.52519274
701.9553139,5993233.085532061
698.2459709,6025671.915624578
694.5838534,6041459.841342103
690.9681281000001,6043016.804546422
687.3979803,6041214.1532952385
683.8726131,6039168.548363555
680.3912472999999,6041163.22334226
676.9531202000001,6041061.61740001
673.557486,6041028.240031343
670.2036149,6040705.136737185
666.8907926,6041765.943293182
663.6183202999999,6041195.759087273
660.3855139,6043713.601145201
657.1917038,6040941.974611607
654.0362346,6042462.046189956
650.9184646000001,6041546.758679307
647.8377654,6040531.530270592
644.7935217999999,6040923.872755939
641.7851312999999,6040637.520647593
638.8120038,6039350.985393438
635.8735614,6040663.694896955
632.9692378999999,6040192.1765521215
630.0984786,6041061.4684977215
627.2607402000001,6042228.9050304415
624.4554901,6042663.56300548
621.6822068,6041028.80675328
618.940379,6040206.772655072
616.2295054,6041191.754433284
613.549095,6041100.77815278
610.8986664,6041372.278596957
608.2777476,6040968.683576847
605.6858758999999,6041102.293064235
603.1225977000001,6041654.980200008
600.5874682,6041324.839734624
598.0800512,6041626.90739031
595.5999188999999,6041240.803627596
593.1466518,6041749.131738604
590.7198384999999,6041280.645227355
588.3190752,6040930.849337619
585.943966,6041320.445579886
583.5941226,6041095.319510007
581.2691637,6041238.760324545
578.9687155,6041257.240292224
576.692411,6040720.794143974
574.4398902,6041747.7196381325
572.2107997,6041114.315071207
570.0047927,6041313.83893043
567.8215287,6041443.567283767
565.6606737000001,6041494.660284111
563.5218996,6041359.7147841975
561.4048845,6041256.450082919
559.3093121,6041199.064930023
557.2348721,6041336.3310159715
555.1812597,6041124.117525652
553.1481756000001,6041652.140102033
551.1353259,6041449.2844254775
549.1424218999999,6041196.544040657
547.1691801,6041366.608244022
545.2153222000001,6041495.960006757
543.2805745000001,6041405.224580037
541.3646685,6041684.949541112
539.46734,6041403.41243858
537.5883299,6041301.2756872475
535.7273833,6041612.228117375
533.8842498,6041444.427915732
532.0586836,6041601.213309852
530.2504428000001,6041278.208883825
528.45929,6041603.303339053
526.6849915,6040790.68788111
524.927318,6041938.854159919
523.186044,6041329.33071783
521.4609475999999,6041757.1114246575
519.7518110000001,6041404.042752634
518.0584200000001,6041186.806738988
516.3805639,6041372.425270562
514.7180356,6041740.797441469
513.0706316000001,6041230.6582392575
511.43815149999995,6041032.496119242
509.82039860000003,6041661.2490559025
508.2171791999999,6041321.799762943
506.628303,6041658.075245557
505.05358269999994,6041343.753665692
503.4928341,6041089.295216427
501.9458762,6041074.740843941
500.41253059999997,6041649.921508825
498.8926222,6041532.508527483
497.3859785,6041217.146537251
495.89242989999997,6041497.417659473
494.4118094,6041676.279040991
492.943953,6041829.617343661
491.488699,6041594.936867638
490.04588839999997,6041432.22927261
488.6153648,6041275.8680067435
487.19697429999997,6041159.309182692
485.7905654,6041506.8471805025
484.39598889999996,6039833.842648111
483.01309800000007,6033728.018842578
481.64174840000004,6021152.750402975
480.28179789999996,5999145.203052768
478.93310639999993,5964686.00834352
477.59553619999997,5915686.19881765
476.2689517,5850455.065200637
474.9532192,5766322.317395083
473.6482074,5663287.711937567
472.35378679999997,5545204.151462409
471.06982989999995,5414729.994584353
469.79621110000005,5273919.478449512
468.53280700000005,5125320.703487028
467.2794956999999,4972549.777008517
466.0361575,4817012.024474953
464.80267410000005,4661158.078176513
463.5789295,4506983.425078575
462.364809,4353199.743909294
461.1601998,4200598.130408464
459.9649909,4049183.3838475724
458.7790727,3898137.781128124
457.6023374,3748428.5978151266
456.4346788,3599055.547220271
455.2759921,3450770.429309947
454.12617439999997,3303020.7576527
452.9851239,3156900.9435749906
451.85274060000006,3011496.608594185
450.7289258,2867964.3892576117
449.6135822,2727277.527841846
448.5066141,2590451.304923102
447.407927,2458127.134295256
446.317428,2331403.136567036
445.23502520000005,2212122.524255599
444.1606283,2100738.5638049473
443.0941482,1997472.4827468146
442.03549699999996,1903422.215437655
440.9845882,1818032.4885413926
439.9413364,1741096.0608096328
438.9056575,1671748.507894751
437.87746860000004,1608876.6862319112
436.85668780000003,1551685.1475829838
435.8432345,1498458.7583391122
434.83702930000004,1448505.8450408904
433.83799369999997,1400789.0419102318
432.84605039999997,1354457.501782187
431.8611232,1308809.823108135
430.8831369,1263631.4870998687
429.9120175,1219144.0391361192
428.94769169999995,1175045.0570138323
427.9900874,1131798.2173622802
427.03913370000004,1089646.4166003163
426.0947602,1048949.0731223873
425.1568978,1010151.9632054331
424.22547829999996,973542.71086466
423.3004343,939436.4114401505
422.3816994,907533.41671484
421.4692081,878142.015849477
420.56289569999996,851097.8429700119
419.66269850000003,825726.3900336993
418.7685535,801623.0474132905
417.8803987,778326.7208877698
416.9981727,755247.1843131231
416.12181519999996,731768.9248006722
415.25126639999996,707634.9203767146
414.38646760000006,682377.2883296178
413.5273605,656155.3724855465
412.673888,628910.2595929146
411.8259934,601017.2878619243
410.9836208,572939.9855711723
410.14671519999996,545247.0728100626
409.3152221,518204.0247275835
408.48908789999996,492504.1930191724
407.66825960000006,468383.9432907488
406.8526847,446045.3036051393
406.0423117,425623.47090955736
405.2370896,406843.14132513216
404.43696800000004,389731.1208125455
403.64189730000004,373674.1504830471
402.8518283,358635.9240386363
402.0667126,344011.76821929193
401.28650239999996,329631.58871554944
400.5111505,315103.8392430542
399.7406101,300434.52931616514
398.9748353,285368.21284361585
398.2137806,269956.9899107388
397.457401,254252.4931270451
396.7056521,238341.24577356665
395.9584903,222426.18970054647
395.2158722,206604.99598461317
394.4777551,191115.99835148692
393.7440968,176110.75802654075
393.0148555,161725.38322874933
392.2899901,148140.76220122408
391.56946,135491.091161257
390.853225,123673.81324849905
390.1412452,112874.37054745766
389.43348169999996,103036.13579356986
388.7298955,94144.4646695744
388.03044839999995,86138.68192058943
387.3351027,78969.46036084359
386.6438209,72553.26747091577
385.95656610000003,66862.48736904358
385.2733019,61745.636370266824
384.5939922,57179.32167326875
383.9186014,53067.152585474134
383.2470943,49375.356242593254
382.5794362,46018.61003552304
381.9155926,42965.37496565567
381.2555296,40175.702505107394
380.59921360000004,37600.27883894505
379.9466115,35227.618154231925
379.29769039999996,33038.39346432275
378.652418,31019.957967891154
378.0107622,29137.784946877524
377.37269130000004,27426.262396350317
376.73817410000004,25824.18671134304
376.1071796,24360.21126984429
375.47967719999997,22976.09881483379
374.8556368,21704.90501369336
374.2350283,20514.30928367424
373.6178223,19390.617171862352
373.0039896,18337.6769259916
372.3935012,17344.91090611098
371.78632860000005,16396.240499907566
371.1824436,15492.24873591732
370.5818182,14646.260241057094
369.98442489999996,13844.08600969839
369.39023629999997,13105.225029483632
368.7992255,12411.704882641036
368.2113658,11763.088207805322
367.6266307,11155.636393438486
367.0449943,10599.45806588518
366.4664305,10078.455469827017
365.89091410000003,9584.603110174368
365.3184196,9111.987772770326
364.7489221,8664.214376380001
364.18239689999996,8239.60238398794
363.61881960000005,7830.421744215423
363.058166,7423.487690948728
362.50041219999997,7041.501885965285
361.94553460000003,6670.516316343354
361.3935098,6304.896481652847
360.8443147,5970.9825739178805
360.29792630000003,5640.850227779054
359.754322,5329.572927104009
359.2134795,5029.5854151123085
358.6753765,4747.751943300667
358.1399912,4490.754152793434
357.6073018,4239.4199291701725
357.077287,4008.34637718362
356.5499253,3786.838450464497
356.025196,3577.8521542902226
355.50307799999996,3379.661416152832
354.983551,3194.0174646701794
354.4665945,3014.708995707496
353.95218839999995,2842.7062233881793
353.4403127,2676.6810151985337
352.9309478,2517.529305559372
352.42407410000004,2369.747992837504
351.9196722,2220.348716219162
351.4177232,2080.0205224203896
350.91820789999997,1937.270005616152
350.4211078,1803.0652659859495
349.9264043,1673.5889126416125
349.434079,1550.7991539743882
348.9441137,1435.2955223871427
348.45649060000005,1332.5749601672835
347.97119169999996,1224.9420473739078
347.48819960000003,1133.8100106781912
347.0074967,1052.2961121959602
346.5290657,982.1303851236956
346.0528897,905.0214479920484
345.5789517,844.5359149464676
345.1072349,780.9575219567379
344.6377228,723.3086765332057
344.17039889999995,664.3282993933566
343.70524710000007,608.0899215056328
343.24225110000003,552.8740549153388
342.7813952,498.4926524184462
342.32266339999995,441.32031853547807
341.8660403,389.2495747074192
341.4115102,341.63697565457073
340.959058,298.46622477011533
340.5086685,261.1655281784515
340.06032660000005,224.99224598541372
339.6140175,186.77165410250691
339.1697264,158.96475341318356
338.7274388,133.13078258301326
338.28714019999995,114.93569719199968
337.8488164,94.12907020829815
337.41245310000005,81.11786800388562
336.9780363,60.67353578090428
336.5455522,56.607275125483035
336.114987,41.322541740477185
335.686327,34.04212962808245
335.2595588,29.215898778655816
334.834669,27.05654086392176
334.4116443,18.61575578529082
333.9904716,22.675185922484808
333.57113799999996,13.374034831704536
333.1536305,14.12940280957874
332.73793639999997,10.130024259818224
332.32404310000004,9.723908217917336
331.91193799999996,6.13954494459863
331.5016088,5.7425276317869685
331.0930432,6.143941836125869
330.6862289,-0.08926732299471317
330.281154,1.0618957721191886
329.8778065,0.7662057592148991
329.47617460000004,4.054445070136195
329.07624649999997,-2.9368650331663484
328.6780106,0.6715339902548599
328.2814555,0.6205418245959327
327.88656960000003,-0.70275859618924
327.4933418,-0.8746874944515549
327.1017607,-0.28457431774985376
326.7118154,4.337533346408445
326.32349480000005,-0.7507178366760586
325.93678789999996,1.1848915124926367
325.5516841,-1.5683337665195938
325.16817260000005,-2.0372257244067957
324.7862428,0.6363727395084826
324.40588419999995,-2.4529415772310603
324.0270864,1.0163093736439348
323.649839,1.5129129404732993
323.2741319,3.193888047836373
322.8999548,-2.9757397767611358
322.5272977,0.3024258686653272
322.1561508,0.7648350497506816
321.786504,-2.822484845134521
321.4183476,1.8654145289142607
321.0516719,2.395629056246109
320.6864673,-3.887092803598392
320.3227243,1.5093432716638215
319.96043330000003,-3.3597677411390485
319.5995851,-0.8809227873983737
319.2401704,3.655890718172501
318.8821799,-2.936737098963415
318.5256045,-2.317584027709887
318.1704352,-1.6508544310547508
317.8166631,-0.7988319246364762
317.4642791,1.5717668894417796
317.1132746,2.5314791516941515
316.76364069999994,1.8514255781862432
316.4153688,5.319390955477363
316.06845039999996,1.0744886815021195
315.72287689999996,3.172816172778881
315.37863980000003,-0.6445330058760594
315.0357308,5.1343306187704725
314.6941415,-1.1127723253072341
314.3538639,4.737129213880976
314.0148896,-3.2893286012487843
313.6772106,-0.1833919245734011
313.3408189,-1.0991236024327566
313.00570639999995,0.015978454892253698
312.67186549999997,-1.4782739545265289
312.33928810000003,2.5845509688050448
312.0079665,-2.1465221451745222
311.6778931,-3.556236367365741
311.34906010000003,2.0533128349703653
311.0214601,1.3150118298917723
310.6950856,0.1417100759854598
310.369929,-3.123222398474001
310.04598300000004,-0.848984265055038
309.7232403,3.3039323318604517
309.4016935,-1.4134762777146328
309.0813356,-3.7200335996062286
308.7621594,1.1423761787803033
308.4441577,-3.454282405355759
308.1273236,-2.4185511871286325
307.8116501,7.715588015815999
307.49713019999996,2.4835382321857833
307.18375710000004,-1.217666750322796
306.871524,0.04939905183651512
306.5604242,1.1308672761561531
306.2504509,-2.074483520723946
