wave,flux
1817.164934,3.0168067621975867
1790.1022050000001,5.682572786963337
1763.812741,2.789918207066385
1738.2646949999998,27.4179031250687
1713.427949,87.90484272396743
1689.273995,252.74470698388137
1665.7758310000002,550.0003600800969
1642.907862,1081.7888607413297
1620.64581,1864.2460872980569
1598.9666300000001,2965.7136729741587
1577.8484310000001,4433.145098678948
1557.270407,6285.065794365532
1537.212767,8548.169008169181
1517.65668,11164.415545125565
1498.5842089999999,14026.36590677305
1479.978265,17114.025306462278
1461.822555,20411.281661350997
1444.101535,23789.19064682382
1426.800368,27238.727986927046
1409.904887,30685.624820011395
1393.401553,34107.10774138623
1377.2774220000001,37558.63350778589
1361.520115,40966.67416968464
1346.117782,44410.85734528666
1331.059081,47880.59129388223
1316.3331449999998,51405.658793511335
1301.92956,54986.56485120949
1287.838342,58542.68553221284
1274.049912,62163.86508992488
1260.5550779999999,65851.52667547343
1247.345017,69578.16040597405
1234.4112519999999,73204.03772195216
1221.74564,76996.56587189723
1209.340352,80753.53450976366
1197.187859,84524.3839194599
1185.28092,88424.39373812127
1173.612564,92246.83215785713
1162.1760800000002,96128.55963739332
1150.9650060000001,100066.85646469887
1139.973115,103992.75924674011
1129.194406,107993.05277025132
1118.623093,112062.41187697204
1108.253594,115982.76225698779
1098.0805269999998,120021.652041735
1088.098695,124143.26406526733
1078.303081,128207.6999278838
1068.688841,132426.66482119673
1059.251295,136635.81127328798
1049.9859199999999,140995.41274023885
1040.8883449999998,145666.6343992326
1031.9543429999999,150664.54982782304
1023.1798259999999,155716.24969736752
1014.5608390000001,161380.91658680767
1006.0935529999999,167462.05340978474
997.774265,173893.11029307952
989.5993858999999,180942.82774900788
981.5654412999999,188022.81833906073
973.6690651,195674.51537899167
965.9069952,203827.47217274815
958.2760697000001,211897.70330192317
950.7732231000001,220246.84565121558
943.3954827,228783.31779314316
936.1399648,236890.7759670559
929.0038716,245476.9605726257
921.9844879000001,253695.1887470855
915.0791782,262006.47768875211
908.2853836000002,270339.65955933393
901.6006193,278662.1054660575
895.0224714,287041.0828680056
888.548595,295418.8487535146
882.1767113,304106.04045142303
875.9046055,313654.8245682315
869.7301242999998,323660.8057841465
863.6511742999999,334147.57175398944
857.6657193,346177.8283926234
851.7717787,359631.432834404
845.9674256000001,374737.9597332725
840.2507849,391073.5992449597
834.6200316000001,409994.35233222943
829.0733892000001,431270.330197353
823.6091279,455824.3351899311
818.2255633999999,482879.1012910556
812.9210552000001,512836.8316364448
807.694005,544851.3217069575
802.5428559,581456.2814424608
797.4660904,620278.0413451319
792.4622299,662383.6699422722
787.5298327,709750.3928475761
782.6674933999999,759684.4614598242
777.8738417999999,815426.3663116414
773.1475413,882502.1522036989
768.4872882999999,959077.7700753681
763.8918112000001,1051539.4975913095
759.3598692,1159301.3306260023
754.8902515999999,1290915.5571198512
750.4817767999999,1444531.942675222
746.1332914,1620087.170510803
741.8436694000001,1822990.203599436
737.6118116,2041390.3848874082
733.4366444,2280626.871668481
729.3171195,2535919.959126561
725.2522127999999,2804995.020525116
721.2409241,3084235.391678396
717.282276,3383068.712386141
713.3753136,3690926.6942464164
709.5191037000001,4001336.868859769
705.7127343,4307980.857947849
701.9553139,4611296.581888945
698.2459709,4898459.8647890715
694.5838534,5167831.081547972
690.9681281000001,5410282.077739235
687.3979803,5603704.711516143
683.8726131,5753917.661952926
680.3912472999999,5869858.510739602
676.9531202000001,5950525.0432679765
673.557486,6003534.030389393
670.2036149,6030823.323591207
666.8907926,6041249.940343746
663.6183202999999,6043300.12497268
660.3855139,6039744.0931189535
657.1917038,6042535.382409533
654.0362346,6041369.668231819
650.9184646000001,6039789.621483651
647.8377654,6040154.132403648
644.7935217999999,6042831.937355813
641.7851312999999,6042195.99704206
638.8120038,6042369.774679064
635.8735614,6040371.489295106
632.9692378999999,6040870.666850458
630.0984786,6041787.224785739
627.2607402000001,6041407.220524631
624.4554901,6041722.759488887
621.6822068,6040682.442573375
618.940379,6041347.564509872
616.2295054,6041047.8331862725
613.549095,6041624.2955243625
610.8986664,6041398.6491854
608.2777476,6041485.857153922
605.6858758999999,6041381.178326755
603.1225977000001,6041474.954170959
600.5874682,6041409.296655891
598.0800512,6041789.7050696025
595.5999188999999,6041426.525330305
593.1466518,6041317.593715306
590.7198384999999,6041237.738571576
588.3190752,6041060.187316272
585.943966,6041295.235666124
583.5941226,6041537.147849898
581.2691637,6041151.8324049
578.9687155,6041839.566567035
576.692411,6041694.334058756
574.4398902,6041493.00163273
572.2107997,6041569.853788816
570.0047927,6041263.470022163
567.8215287,6041564.15165365
565.6606737000001,6041880.570949808
563.5218996,6041408.486325255
561.4048845,6041513.52986276
559.3093121,6041433.231442805
557.2348721,6041075.1248025615
555.1812597,6041538.193901627
553.1481756000001,6041331.148162764
551.1353259,6040901.916270974
549.1424218999999,6041579.885832809
547.1691801,6040876.582003605
545.2153222000001,6041374.20408998
543.2805745000001,6041316.0094653275
541.3646685,6041202.2521255165
539.46734,6040808.14193174
537.5883299,6041842.543303353
535.7273833,6041421.3829675475
533.8842498,6041993.916111532
532.0586836,6041232.661410249
530.2504428000001,6041280.999266783
528.45929,6041234.831039527
526.6849915,6041522.762008183
524.927318,6041328.91492629
523.186044,6041518.6186481
521.4609475999999,6041409.717909475
519.7518110000001,6041110.89288179
518.0584200000001,6041388.4754699785
516.3805639,6041729.656564208
514.7180356,6041462.775039416
513.0706316000001,6041272.927584464
511.43815149999995,6041523.3122713575
509.82039860000003,6041078.211755728
508.2171791999999,6041583.538531528
506.628303,6041805.338849632
505.05358269999994,6041354.847323329
503.4928341,6041016.326169686
501.9458762,6041214.764104359
500.41253059999997,6041457.567356345
498.8926222,6041344.9043571185
497.3859785,6041136.333277647
495.89242989999997,6041475.826699689
494.4118094,6041463.6537067285
492.943953,6041437.3433221225
491.488699,6041546.025958672
490.04588839999997,6041603.680722295
488.6153648,6041619.761920878
487.19697429999997,6041523.363942052
485.7905654,6041670.085881707
484.39598889999996,6041431.717493302
483.01309800000007,6041781.461284872
481.64174840000004,6041302.689727026
480.28179789999996,6041334.297940733
478.93310639999993,6041635.974366653
477.59553619999997,6041767.307171818
476.2689517,6041442.810356943
474.9532192,6041582.816145227
473.6482074,6041545.247710941
472.35378679999997,6041190.856785261
471.06982989999995,6041096.459141819
469.79621110000005,6041469.514304531
468.53280700000005,6041302.131485181
467.2794956999999,6041370.704317072
466.0361575,6041376.755348798
464.80267410000005,6041524.184286297
463.5789295,6040947.971601732
462.364809,6041359.984169266
461.1601998,6039972.799388676
459.9649909,6034235.75661767
458.7790727,6022710.163615295
457.6023374,6000017.4709992185
456.4346788,5964949.64172063
455.2759921,5915017.423330301
454.12617439999997,5847623.451481372
452.9851239,5759573.792908507
451.85274060000006,5650750.462762951
450.7289258,5524642.922563343
449.6135822,5384061.2690760745
448.5066141,5232107.99357376
447.407927,5072072.3806892345
446.317428,4906637.765036021
445.23502520000005,4740664.671437161
444.1606283,4576779.307609271
443.0941482,4416927.663811918
442.03549699999996,4262706.831854886
440.9845882,4114374.7147930483
439.9413364,3971774.327395563
438.9056575,3836476.5188069763
437.87746860000004,3706099.1050236262
436.85668780000003,3581452.7218104526
435.8432345,3462995.436637554
434.83702930000004,3347931.931009731
433.83799369999997,3237333.548706895
432.84605039999997,3129837.262241755
431.8611232,3024838.074854941
430.8831369,2922774.7974981014
429.9120175,2823439.1404602174
428.94769169999995,2726347.5930747204
427.9900874,2632303.93676363
427.03913370000004,2541284.418737501
426.0947602,2453160.108507538
425.1568978,2368172.551726793
424.22547829999996,2286662.7480652086
423.3004343,2208048.3338611443
422.3816994,2132858.6826331844
421.4692081,2060645.1158759939
420.56289569999996,1990737.1450267087
419.66269850000003,1923598.951771275
418.7685535,1858783.422266243
417.8803987,1795858.8631784066
416.9981727,1734664.544802157
416.12181519999996,1675083.2974574913
415.25126639999996,1616359.2341474812
414.38646760000006,1558810.7101113615
413.5273605,1502749.5469040317
412.673888,1447242.5552393168
411.8259934,1393077.2174786727
410.9836208,1340550.4549471338
410.14671519999996,1289193.1568435454
409.3152221,1239526.4420535
408.48908789999996,1191568.019952804
407.66825960000006,1145153.7868712195
406.8526847,1100317.1147271288
406.0423117,1056543.2385386224
405.2370896,1014143.2065865174
404.43696800000004,972443.9218935972
403.64189730000004,931090.578546304
402.8518283,890238.7614931967
402.0667126,849407.5588960156
401.28650239999996,808740.2528322651
400.5111505,768167.3400845977
399.7406101,727844.0876967369
398.9748353,688148.0634272583
398.2137806,648959.6410669673
397.457401,610720.9030876224
396.7056521,573848.2882905679
395.9584903,538385.0116334608
395.2158722,504644.96909488615
394.4777551,472799.23647932865
393.7440968,442912.39072151727
393.0148555,415177.7527782436
392.2899901,389314.6428893583
391.56946,365364.9382882682
390.853225,343224.5993939746
390.1412452,322573.7669557673
389.43348169999996,303309.9740113877
388.7298955,285261.26040406694
388.03044839999995,268150.0597406861
387.3351027,251984.7623623584
386.6438209,236501.44400606712
385.95656610000003,221669.7909224448
385.2733019,207435.2397733248
384.5939922,193671.40021610868
383.9186014,180553.30485503344
383.2470943,167900.17101517675
382.5794362,155883.49520676464
381.9155926,144398.6835318055
381.2555296,133526.86067064205
380.59921360000004,123298.15034550465
379.9466115,113713.91020351644
379.29769039999996,104791.07091942693
378.652418,96572.62888976195
378.0107622,89069.11221768668
377.37269130000004,82250.94527639209
376.73817410000004,76100.72485124411
376.1071796,70616.8156509006
375.47967719999997,65712.96920554756
374.8556368,61312.91495538492
374.2350283,57419.696239460674
373.6178223,53909.521895947626
373.0039896,50736.7999266633
372.3935012,47854.048344247196
371.78632860000005,45209.1551051915
371.1824436,42755.71287153701
370.5818182,40487.70776357897
369.98442489999996,38343.64946671033
369.39023629999997,36343.05834712107
368.7992255,34457.12118616358
368.2113658,32668.60831923349
367.6266307,31016.014308352784
367.0449943,29425.794650979868
366.4664305,27942.391762218114
365.89091410000003,26532.13888943518
365.3184196,25219.19123262431
364.7489221,23966.10707562767
364.18239689999996,22768.53277123895
363.61881960000005,21643.424618559242
363.058166,20567.342336259127
362.50041219999997,19531.170247262482
361.94553460000003,18556.61585786853
361.3935098,17614.340989357337
360.8443147,16712.641397457013
360.29792630000003,15856.728874577624
359.754322,15033.265253143723
359.2134795,14261.172047288552
358.6753765,13518.093906377539
358.1399912,12802.16418052411
357.6073018,12124.455597835871
357.077287,11474.358212791856
356.5499253,10857.745225038647
356.025196,10255.971566536306
355.50307799999996,9683.51052661309
354.983551,9135.32169504963
354.4665945,8614.726157407269
353.95218839999995,8119.374660919149
353.4403127,7636.9211729870785
352.9309478,7189.5390394574515
352.42407410000004,6759.1111151647465
351.9196722,6361.569885219891
351.4177232,5974.300548737656
350.91820789999997,5613.118512476844
350.4211078,5271.756075475236
349.9264043,4936.976508137155
349.434079,4628.677854198758
348.9441137,4334.828208841002
348.45649060000005,4055.619882433692
347.97119169999996,3787.197710148937
347.48819960000003,3528.3770306854326
347.0074967,3290.753821933903
346.5290657,3054.2645865853515
346.0528897,2835.885848663404
345.5789517,2622.329072602579
345.1072349,2415.8334427996892
344.6377228,2226.2812363345124
344.17039889999995,2049.237999091526
343.70524710000007,1881.8208528200714
343.24225110000003,1718.6998177012792
342.7813952,1567.2828735781866
342.32266339999995,1423.47490312668
341.8660403,1292.4832619471813
341.4115102,1173.0980736781428
340.959058,1056.1677628738685
340.5086685,953.8810002594985
340.06032660000005,864.9475056582248
339.6140175,774.1124158201163
339.1697264,703.7841914523262
338.7274388,640.48671309189
338.28714019999995,572.9572908859135
337.8488164,521.9131935295841
337.41245310000005,474.5066232612715
336.9780363,425.5954098109334
336.5455522,388.74139709099677
336.114987,346.97736607138154
335.686327,302.44977448372305
335.2595588,266.8819953355239
334.834669,234.76775302233008
334.4116443,206.6536471100213
333.9904716,180.61463709864856
333.57113799999996,150.3845804707505
333.1536305,126.30959083762545
332.73793639999997,110.43111320878536
332.32404310000004,82.05258335811709
331.91193799999996,63.79905420945219
331.5016088,56.028236999439365
331.0930432,36.69163256765511
330.6862289,28.964777618361865
330.281154,23.69118516034232
329.8778065,8.957260794261208
329.47617460000004,12.272651676365975
329.07624649999997,7.24121264309464
328.6780106,2.849897000884985
328.2814555,-1.2905969353279163
327.88656960000003,2.4439685033638536
327.4933418,1.2248071420386268
327.1017607,1.1006517230604176
326.7118154,1.5046353298632875
326.32349480000005,0.16344393552532355
325.93678789999996,-4.062582530681529
325.5516841,-2.372968841807721
325.16817260000005,-2.796875255763048
324.7862428,-3.4368951254709224
324.40588419999995,-4.89032167948331
324.0270864,-1.8422003253616648
323.649839,-3.1673123907836187
323.2741319,-3.0673321892179617
322.8999548,1.1289375675416602
322.5272977,1.6562879227895957
322.1561508,-0.5927668468315231
321.786504,-0.7011375405384835
321.4183476,1.951341453310072
321.0516719,-1.9348845046836496
320.6864673,-3.357572068024853
320.3227243,-1.9234346114560403
319.96043330000003,-0.5230178421053543
319.5995851,0.1843351327364076
319.2401704,2.699684114853352
318.8821799,0.8625972906620897
318.5256045,-1.1417491778506632
318.1704352,-3.5483122946480945
317.8166631,-0.688046178028619
317.4642791,1.7731877860411052
317.1132746,-0.4524894813167237
316.76364069999994,-3.401199196877365
316.4153688,-0.7773610573233776
316.06845039999996,-1.3600987120562071
315.72287689999996,0.046654980882670165
315.37863980000003,0.17648841986451333
315.0357308,-1.4073165019726963
314.6941415,0.5923511815000783
314.3538639,2.48774184264193
314.0148896,1.411311668251164
313.6772106,-1.8196929220095248
313.3408189,2.8432735120170545
313.00570639999995,3.3678852148164045
312.67186549999997,-0.7023605964698763
312.33928810000003,1.5458030160024352
312.0079665,-0.3321264939454849
311.6778931,-0.8234743184437905
311.34906010000003,-0.8370075473564375
311.0214601,6.029741262787737
310.6950856,-2.4046430384820185
310.369929,0.9050324317976004
310.04598300000004,-1.5605602848064453
309.7232403,-0.3876609169483024
309.4016935,2.15236891745591
309.0813356,1.3141161324533248
308.7621594,1.3700432915731984
308.4441577,3.014513265226496
308.1273236,-4.657979381964479
307.8116501,-2.5361852265111877
307.49713019999996,-1.5912608207660903
307.18375710000004,-0.18378996112555396
306.871524,4.107066144897583
306.5604242,-5.843039570650812
306.2504509,-1.0772442752355884
