wave,flux
1817.164934,5.122824680909837
1790.1022050000001,33.841574512010304
1763.812741,13.185166883143015
1738.2646949999998,92.2197322256728
1713.427949,235.9906394242823
1689.273995,1149.4795654283212
1665.7758310000002,3181.700868481131
1642.907862,6458.7972696626575
1620.64581,11113.544192027008
1598.9666300000001,17363.406396773207
1577.8484310000001,25235.6067879776
1557.270407,34722.51414601871
1537.212767,45925.32196725121
1517.65668,57848.80053200665
1498.5842089999999,69778.83126636395
1479.978265,81487.85137368587
1461.822555,93055.02761522758
1444.101535,104212.08111812756
1426.800368,114714.26581267804
1409.904887,124547.11716180432
1393.401553,133474.78895708427
1377.2774220000001,142128.92405104547
1361.520115,150597.63867865485
1346.117782,158643.06371974506
1331.059081,166416.4970625842
1316.3331449999998,173958.9034872443
1301.92956,181322.4398645034
1287.838342,188395.13276459408
1274.049912,195227.16306984556
1260.5550779999999,201791.77754564644
1247.345017,208136.69768616452
1234.4112519999999,214370.96820385678
1221.74564,220613.8489149748
1209.340352,226620.5764462849
1197.187859,232944.95054316547
1185.28092,238734.93065457296
1173.612564,244673.32598362464
1162.1760800000002,250643.77848160372
1150.9650060000001,256636.14000619532
1139.973115,262490.05432671163
1129.194406,268686.63054543803
1118.623093,274423.99575122114
1108.253594,280349.6251231596
1098.0805269999998,286279.33868700755
1088.098695,292443.957914706
1078.303081,297858.151888806
1068.688841,304565.69907627354
1059.251295,311037.53591451014
1049.9859199999999,318328.7216495185
1040.8883449999998,326923.5142153316
1031.9543429999999,336467.1315148886
1023.1798259999999,347642.5252671281
1014.5608390000001,360684.4982387988
1006.0935529999999,375538.5082281372
997.774265,391726.08902768634
989.5993858999999,409354.35550541006
981.5654412999999,428455.2208567551
973.6690651,448287.5017400801
965.9069952,468287.0198678265
958.2760697000001,488052.3491125024
950.7732231000001,507305.1794317375
943.3954827,525651.26610693
936.1399648,542534.080399179
929.0038716,558790.014266645
921.9844879000001,573876.4267045115
915.0791782,587653.5034740723
908.2853836000002,600752.6644836965
901.6006193,613990.9120775983
895.0224714,627528.8644883877
888.548595,641530.3713421718
882.1767113,660029.7190162891
875.9046055,678443.2846621915
869.7301242999998,701513.3029654699
863.6511742999999,728217.4397804086
857.6657193,759532.2539534465
851.7717787,800344.1804892273
845.9674256000001,847311.2219475894
840.2507849,901690.1031883749
834.6200316000001,968081.2556738262
829.0733892000001,1046286.420617073
823.6091279,1135593.3095331192
818.2255633999999,1236035.8867793565
812.9210552000001,1347346.8409554188
807.694005,1468280.4861989284
802.5428559,1597632.0033828984
797.4660904,1730854.9731222158
792.4622299,1875946.6257046715
787.5298327,2028213.8917106318
782.6674933999999,2198528.452775492
777.8738417999999,2399473.043534901
773.1475413,2639090.057145393
768.4872882999999,2921857.42626394
763.8918112000001,3238325.8216110375
759.3598692,3590374.982805078
754.8902515999999,3961863.9609775217
750.4817767999999,4345660.684694277
746.1332914,4722795.660132714
741.8436694000001,5071786.946244592
737.6118116,5359216.816033849
733.4366444,5592118.014152882
729.3171195,5768688.524640173
725.2522127999999,5896743.965348758
721.2409241,5979694.426271405
717.282276,6020228.230608075
713.3753136,6039547.237831062
709.5191037000001,6041752.3887807885
705.7127343,6041976.995765536
701.9553139,6039511.2486941125
698.2459709,6041522.156058246
694.5838534,6040545.229979325
690.9681281000001,6043120.43719838
687.3979803,6045021.889758058
683.8726131,6042024.228254243
680.3912472999999,6041077.602356777
676.9531202000001,6042402.532020708
673.557486,6040247.896692597
670.2036149,6040503.45423398
666.8907926,6041387.571066087
663.6183202999999,6040903.243005613
660.3855139,6042082.639303814
657.1917038,6042035.544933558
654.0362346,6041074.144698585
650.9184646000001,6039739.343100113
647.8377654,6041482.520820014
644.7935217999999,6044532.934150489
641.7851312999999,6041404.963734147
638.8120038,6040369.659242894
635.8735614,6041102.350999308
632.9692378999999,6041975.670345465
630.0984786,6041567.957621497
627.2607402000001,6041042.005047434
624.4554901,6042128.532840095
621.6822068,6040487.135005233
618.940379,6041478.878214606
616.2295054,6042089.429023111
613.549095,6041408.150887674
610.8986664,6041327.735916282
608.2777476,6041628.421201175
605.6858758999999,6040863.472594691
603.1225977000001,6041226.623148769
600.5874682,6041145.896880521
598.0800512,6041069.25784056
595.5999188999999,6041323.312238107
593.1466518,6041801.918567175
590.7198384999999,6041286.437353509
588.3190752,6041380.7715422185
585.943966,6040707.140493679
583.5941226,6041326.3009352125
581.2691637,6041187.2023434015
578.9687155,6041654.679106662
576.692411,6041463.384578855
574.4398902,6041472.661731716
572.2107997,6041287.024534982
570.0047927,6041215.833391933
567.8215287,6041465.948202495
565.6606737000001,6041881.086845574
563.5218996,6041885.254514039
561.4048845,6041263.015941868
559.3093121,6041479.108971175
557.2348721,6041497.707112096
555.1812597,6041442.3528944515
553.1481756000001,6041795.320032236
551.1353259,6041352.8647706965
549.1424218999999,6041134.021043826
547.1691801,6041392.893392857
545.2153222000001,6041468.279496082
543.2805745000001,6041773.213973718
541.3646685,6041085.72400741
539.46734,6041451.157920871
537.5883299,6041481.190650841
535.7273833,6041694.853957506
533.8842498,6041470.226615419
532.0586836,6041595.197455483
530.2504428000001,6041163.002716717
528.45929,6041595.210671786
526.6849915,6041106.788302408
524.927318,6041129.698362418
523.186044,6041452.978246999
521.4609475999999,6041488.37267245
519.7518110000001,6041247.064356396
518.0584200000001,6041246.363459928
516.3805639,6040970.6577240825
514.7180356,6041078.6606083615
513.0706316000001,6041232.433300675
511.43815149999995,6041901.750280713
509.82039860000003,6041491.91963852
508.2171791999999,6041321.284469926
506.628303,6041407.742955421
505.05358269999994,6041444.3386805225
503.4928341,6041177.759823296
501.9458762,6041591.87570631
500.41253059999997,6041574.770684998
498.8926222,6041087.995825985
497.3859785,6041652.639297994
495.89242989999997,6041444.991892963
494.4118094,6041564.55811101
492.943953,6041485.258196424
491.488699,6041298.4861872615
490.04588839999997,6041522.596592813
488.6153648,6041548.15874354
487.19697429999997,6041189.984762337
485.7905654,6041614.612065364
484.39598889999996,6041880.655682965
483.01309800000007,6041348.505144958
481.64174840000004,6041289.285928794
480.28179789999996,6041286.226717269
478.93310639999993,6041632.2261843765
477.59553619999997,6041212.528627073
476.2689517,6041197.825997747
474.9532192,6041441.039630333
473.6482074,6041164.430060557
472.35378679999997,6041262.266176677
471.06982989999995,6041073.699096464
469.79621110000005,6041679.125760093
468.53280700000005,6041050.1198759135
467.2794956999999,6041703.307344978
466.0361575,6041157.401550085
464.80267410000005,6041514.4300941825
463.5789295,6041230.286127588
462.364809,6041579.446870976
461.1601998,6041363.619799308
459.9649909,6041587.519994212
458.7790727,6041683.837137264
457.6023374,6041220.573265352
456.4346788,6041254.96791979
455.2759921,6041619.241255436
454.12617439999997,6040946.2007138785
452.9851239,6041402.102237546
451.85274060000006,6041811.708109081
450.7289258,6041246.360252465
449.6135822,6041260.786247387
448.5066141,6041282.58369382
447.407927,6041319.265665861
446.317428,6041087.738054734
445.23502520000005,6041379.928557465
444.1606283,6041332.237342114
443.0941482,6041496.824409149
442.03549699999996,6041337.042841748
440.9845882,6041575.540772636
439.9413364,6041463.380306342
438.9056575,6041901.157638436
437.87746860000004,6039684.64456604
436.85668780000003,6031528.800099373
435.8432345,6013305.445999849
434.83702930000004,5981327.410636198
433.83799369999997,5932298.528119923
432.84605039999997,5862435.1197772985
431.8611232,5769276.958649082
430.8831369,5650240.190517281
429.9120175,5505303.428167178
428.94769169999995,5340703.246603008
427.9900874,5160410.2216393165
427.03913370000004,4967988.508849524
426.0947602,4768813.3275634535
425.1568978,4563230.111176228
424.22547829999996,4355928.38562206
423.3004343,4148901.962997373
422.3816994,3943519.525989016
421.4692081,3740299.3415170377
420.56289569999996,3538368.2356977845
419.66269850000003,3339565.486600572
418.7685535,3145979.830509299
417.8803987,2958861.4527133387
416.9981727,2779864.659127229
416.12181519999996,2610927.25537322
415.25126639999996,2452734.8065047073
414.38646760000006,2305787.468489722
413.5273605,2170358.4362501064
412.673888,2045699.084146578
411.8259934,1931239.0252261725
410.9836208,1826067.1417408984
410.14671519999996,1729535.0173145116
409.3152221,1640389.676491129
408.48908789999996,1557546.7331846294
407.66825960000006,1480255.1524905157
406.8526847,1407259.3399609842
406.0423117,1337124.596969627
405.2370896,1269504.764704387
404.43696800000004,1203172.438897032
403.64189730000004,1138278.357462593
402.8518283,1074889.4326663772
402.0667126,1013190.4512784079
401.28650239999996,953810.7023115822
400.5111505,897816.6865099184
399.7406101,845796.2736266769
398.9748353,798514.0808559975
398.2137806,756354.66868296
397.457401,718922.2329824985
396.7056521,686146.2500999302
395.9584903,657144.6880791957
395.2158722,631045.2597552465
394.4777551,606912.9438492381
393.7440968,583734.2271954729
393.0148555,560928.1864063493
392.2899901,537800.2530525482
391.56946,513984.8520221345
390.853225,489248.7413942893
390.1412452,463884.07519720175
389.43348169999996,437978.0251944995
388.7298955,411797.1855743915
388.03044839999995,385643.4224149011
387.3351027,359708.0081710825
386.6438209,334510.35009136447
385.95656610000003,310150.0674209281
385.2733019,286930.28142640955
384.5939922,265049.9348067201
383.9186014,244633.64426329872
383.2470943,225678.36473969553
382.5794362,208227.25181470177
381.9155926,192382.01975182586
381.2555296,177997.70158990868
380.59921360000004,165082.97406357722
379.9466115,153439.8876600755
379.29769039999996,142962.02187456755
378.652418,133622.3305703779
378.0107622,125252.81062607148
377.37269130000004,117781.1795267621
376.73817410000004,111072.80037725992
376.1071796,105008.43689162373
375.47967719999997,99484.55222530128
374.8556368,94449.92709790124
374.2350283,89778.89021166817
373.6178223,85398.36374933539
373.0039896,81311.74709387595
372.3935012,77441.99274045648
371.78632860000005,73798.02851975801
371.1824436,70333.48415469188
370.5818182,67025.13009856112
369.98442489999996,63846.88113845468
369.39023629999997,60779.55515202873
368.7992255,57838.31207804709
368.2113658,54977.07800801291
367.6266307,52179.90689824511
367.0449943,49412.13616684268
366.4664305,46757.47479776231
365.89091410000003,44180.56940837403
365.3184196,41720.21828226977
364.7489221,39404.52174083162
364.18239689999996,37163.253525480046
363.61881960000005,35044.82362454127
363.058166,33019.905174778185
362.50041219999997,31119.464635047272
361.94553460000003,29309.808418624165
361.3935098,27562.67379724197
360.8443147,25861.81301554612
360.29792630000003,24218.833911900518
359.754322,22680.196442207325
359.2134795,21237.986214839457
358.6753765,19877.71180415605
358.1399912,18602.5293949996
357.6073018,17364.63685886898
357.077287,16194.801110079712
356.5499253,15092.06941057111
356.025196,14041.447420756584
355.50307799999996,13024.65212978223
354.983551,12035.711217569688
354.4665945,11088.113299684454
353.95218839999995,10223.347201088734
353.4403127,9425.181601068423
352.9309478,8716.060354913063
352.42407410000004,8071.86572224211
351.9196722,7482.784897095209
351.4177232,6962.557770977327
350.91820789999997,6483.083890128036
350.4211078,6058.22472096351
349.9264043,5644.669826699504
349.434079,5247.786172993674
348.9441137,4875.964094649775
348.45649060000005,4542.968979596873
347.97119169999996,4218.191208888868
347.48819960000003,3917.0835250637615
347.0074967,3631.8741583832507
346.5290657,3370.655716752176
346.0528897,3117.705623607387
345.5789517,2874.5992114933147
345.1072349,2638.3964366354144
344.6377228,2400.84579570331
344.17039889999995,2171.686737361942
343.70524710000007,1969.5378301471612
343.24225110000003,1790.589698119003
342.7813952,1631.374848715806
342.32266339999995,1497.1593328397553
341.8660403,1386.4594274883787
341.4115102,1294.2275093129715
340.959058,1216.9383451594724
340.5086685,1149.6972335189826
340.06032660000005,1077.0515963281168
339.6140175,1001.346109680875
339.1697264,921.5815336232664
338.7274388,836.6612840186285
338.28714019999995,741.4425441981641
337.8488164,654.7478686294106
337.41245310000005,577.3474560065699
336.9780363,495.3117821149894
336.5455522,432.2758462405957
336.114987,364.2633899320221
335.686327,302.2711113585265
335.2595588,250.7862471090364
334.834669,208.6708773376413
334.4116443,170.37762579491158
333.9904716,140.48664598031368
333.57113799999996,105.12732542284724
333.1536305,84.5544576598783
332.73793639999997,63.169894957154504
332.32404310000004,46.716865312239406
331.91193799999996,32.851944654408214
331.5016088,22.910191105582555
331.0930432,11.387645856053831
330.6862289,5.379819533520626
330.281154,7.3767788790121696
329.8778065,4.682465023788441
329.47617460000004,-2.0056539969127742
329.07624649999997,-1.410416724498699
328.6780106,0.8202667477512737
328.2814555,6.082557376744234
327.88656960000003,4.373052757144661
327.4933418,2.0457294261928247
327.1017607,-1.0391015266028998
326.7118154,6.449996980763812
326.32349480000005,-1.8066429466617304
325.93678789999996,-0.4713834394574703
325.5516841,-0.05687473599979991
325.16817260000005,-1.9006120827319333
324.7862428,-0.06341514555718132
324.40588419999995,1.7836653988183009
324.0270864,3.6720974305529257
323.649839,-1.4225451055013276
323.2741319,3.055135976027536
322.8999548,-0.5089193140667955
322.5272977,0.9259516258439596
322.1561508,-0.2603130924876073
321.786504,-3.8626886012087387
321.4183476,0.5187333811080396
321.0516719,-0.4632643834853661
320.6864673,2.233032701598748
320.3227243,-0.9312794992857838
319.96043330000003,-4.773608414617424
319.5995851,2.1616151825219183
319.2401704,-1.2740097835630309
318.8821799,0.09423139120225303
318.5256045,1.2020532099271222
318.1704352,-2.6726340900337147
317.8166631,-3.7018791238647855
317.4642791,-3.2815523002376987
317.1132746,2.1589263483642918
316.76364069999994,-1.3138294553942116
316.4153688,2.5378962482691043
316.06845039999996,-0.12019336744762395
315.72287689999996,2.0112457840697884
315.37863980000003,0.6054055949030681
315.0357308,2.4781330381498323
314.6941415,1.8649742260054896
314.3538639,-1.5332519318737563
314.0148896,-0.043894449204637496
313.6772106,3.598879393466053
313.3408189,-2.9034555184164583
313.00570639999995,3.3065455310371665
312.67186549999997,4.996870715291728
312.33928810000003,1.3624042495980475
312.0079665,-1.941903597190695
311.6778931,0.5291574294318421
311.34906010000003,4.550301267766294
311.0214601,-0.5214336877672766
310.6950856,3.3069991676585
310.369929,3.827644583817956
310.04598300000004,0.5715730480964598
309.7232403,-2.188604063681284
309.4016935,1.0928936233142477
309.0813356,-1.6203762099395032
308.7621594,2.4030172998905965
308.4441577,2.0210083876274445
308.1273236,-1.7448086759622912
307.8116501,2.2315021865741262
307.49713019999996,-2.0894941685852664
307.18375710000004,0.7781661927346099
306.871524,-0.055705861272449884
306.5604242,-2.221596797408446
306.2504509,1.486598214181757
