wave,flux
1817.164934,2.520008113118962
1790.1022050000001,-4.038755754772351
1763.812741,-0.3572122969901033
1738.2646949999998,20.485117061558427
1713.427949,81.28475641335379
1689.273995,189.40354508095677
1665.7758310000002,420.8416125825538
1642.907862,788.8299683576782
1620.64581,1368.8301171396645
1598.9666300000001,2203.9135962172672
1577.8484310000001,3321.474815218077
1557.270407,4751.751356909604
1537.212767,6504.656058096455
1517.65668,8583.7535217966
1498.5842089999999,10911.279401535565
1479.978265,13446.218723065713
1461.822555,16180.566640168247
1444.101535,19022.198787029487
1426.800368,21984.636441231083
1409.904887,24925.951424433675
1393.401553,27916.17576598377
1377.2774220000001,30931.514594661698
1361.520115,33904.575930798506
1346.117782,36904.1960670493
1331.059081,39955.106924042215
1316.3331449999998,43056.41124361115
1301.92956,46094.511786584684
1287.838342,49244.18960564959
1274.049912,52399.70883120736
1260.5550779999999,55640.62128774714
1247.345017,58837.884952048356
1234.4112519999999,62129.23866242305
1221.74564,65438.500362313476
1209.340352,68832.23329013117
1197.187859,72246.03734831119
1185.28092,75722.85237277731
1173.612564,79239.9323512591
1162.1760800000002,82772.82707687186
1150.9650060000001,86374.3686711526
1139.973115,90136.41549687367
1129.194406,93870.1752298772
1118.623093,97629.14396315523
1108.253594,101389.3370938874
1098.0805269999998,105234.10807391377
1088.098695,109057.57604155883
1078.303081,112900.38896192412
1068.688841,116749.8479230984
1059.251295,120868.193954855
1049.9859199999999,125007.47420239235
1040.8883449999998,129353.99436756119
1031.9543429999999,134095.62259513498
1023.1798259999999,138720.6140252609
1014.5608390000001,143823.41096438386
1006.0935529999999,149386.76582408356
997.774265,155132.34505044512
989.5993858999999,161389.05552622725
981.5654412999999,167935.22905340456
973.6690651,174616.54060587875
965.9069952,181930.16788961078
958.2760697000001,189200.65011401192
950.7732231000001,196609.16358634594
943.3954827,204253.47325822987
936.1399648,211854.98684337735
929.0038716,219752.50798564206
921.9844879000001,227495.37927686595
915.0791782,235155.01765248328
908.2853836000002,242896.59134717105
901.6006193,250447.0632848609
895.0224714,258146.9878838459
888.548595,266174.6980070184
882.1767113,274511.78029580833
875.9046055,282998.6062504766
869.7301242999998,291555.8949693547
863.6511742999999,301008.41570534115
857.6657193,312037.45415984513
851.7717787,323487.41896153806
845.9674256000001,335878.54244174575
840.2507849,350209.5398478475
834.6200316000001,366464.1983586019
829.0733892000001,383769.0630418881
823.6091279,404097.62971754384
818.2255633999999,426456.6395507633
812.9210552000001,451328.2634120165
807.694005,478653.26076544967
802.5428559,509428.55752429797
797.4660904,542104.3982511152
792.4622299,579057.5592431346
787.5298327,618660.8413877167
782.6674933999999,660809.5229035977
777.8738417999999,708872.2249542259
773.1475413,764127.3613260548
768.4872882999999,828379.9418670838
763.8918112000001,902849.5189800693
759.3598692,991175.837860168
754.8902515999999,1098005.0350422112
750.4817767999999,1220971.6301617818
746.1332914,1364172.169011533
741.8436694000001,1526654.1567782054
737.6118116,1708519.588827443
733.4366444,1906106.4908062543
729.3171195,2118935.5786093995
725.2522127999999,2345828.8438063757
721.2409241,2584167.162130142
717.282276,2838221.2682355763
713.3753136,3112340.9153718343
709.5191037000001,3407071.9294138723
705.7127343,3711192.1692837738
701.9553139,4026550.452086992
698.2459709,4345125.441804833
694.5838534,4660001.061447999
690.9681281000001,4959349.9828927005
687.3979803,5236519.943081534
683.8726131,5470270.437513766
680.3912472999999,5657185.810969727
676.9531202000001,5801384.0537495585
673.557486,5909031.751528148
670.2036149,5978208.184175557
666.8907926,6019074.396398341
663.6183202999999,6036643.508913661
660.3855139,6042710.099549527
657.1917038,6041591.451324949
654.0362346,6042253.616329469
650.9184646000001,6042611.86488626
647.8377654,6040781.5811031265
644.7935217999999,6040899.411546724
641.7851312999999,6042527.305818952
638.8120038,6041551.027104522
635.8735614,6041518.192716463
632.9692378999999,6041562.527237514
630.0984786,6042156.33751984
627.2607402000001,6042259.051677742
624.4554901,6040832.416140457
621.6822068,6041280.416474469
618.940379,6041803.158957044
616.2295054,6041664.664145556
613.549095,6041496.366289525
610.8986664,6041490.497300179
608.2777476,6041562.354603197
605.6858758999999,6041366.446823858
603.1225977000001,6040942.539946533
600.5874682,6041317.387429457
598.0800512,6041379.0958608
595.5999188999999,6041234.090439892
593.1466518,6041557.745132661
590.7198384999999,6041708.781581959
588.3190752,6041404.233308665
585.943966,6041235.097245728
583.5941226,6040812.878566536
581.2691637,6041365.526083345
578.9687155,6041443.082895095
576.692411,6041904.25559671
574.4398902,6041222.163522574
572.2107997,6041545.043217594
570.0047927,6041183.1184590785
567.8215287,6041471.147920093
565.6606737000001,6041449.374685733
563.5218996,6041165.376680855
561.4048845,6041353.661578185
559.3093121,6041103.505248733
557.2348721,6041708.955779878
555.1812597,6041665.885323993
553.1481756000001,6041308.401219985
551.1353259,6041505.090341745
549.1424218999999,6041291.121696569
547.1691801,6041116.928187452
545.2153222000001,6041011.900752718
543.2805745000001,6041323.928766206
541.3646685,6041177.939503922
539.46734,6041781.565624
537.5883299,6041819.1968571935
535.7273833,6041287.400159412
533.8842498,6041141.2406125525
532.0586836,6041654.5250375075
530.2504428000001,6041193.827332852
528.45929,6041724.584244045
526.6849915,6041490.734033051
524.927318,6041384.998473172
523.186044,6041602.106747154
521.4609475999999,6040894.129361575
519.7518110000001,6041781.5102408985
518.0584200000001,6041424.792832202
516.3805639,6040995.432781871
514.7180356,6041434.876971942
513.0706316000001,6041369.894810337
511.43815149999995,6041577.403715766
509.82039860000003,6041382.457709333
508.2171791999999,6041498.835489958
506.628303,6041304.351247186
505.05358269999994,6041517.435337887
503.4928341,6041316.229463995
501.9458762,6041227.411195752
500.41253059999997,6041497.019932891
498.8926222,6041867.78452304
497.3859785,6041486.284453259
495.89242989999997,6041594.352509901
494.4118094,6041129.737002256
492.943953,6041310.940797323
491.488699,6041096.402041873
490.04588839999997,6041731.396512406
488.6153648,6041274.605300482
487.19697429999997,6041299.426755996
485.7905654,6041433.985534521
484.39598889999996,6041293.717382378
483.01309800000007,6040952.156383674
481.64174840000004,6041833.334512865
480.28179789999996,6041513.651358805
478.93310639999993,6041525.459220452
477.59553619999997,6041438.3842727775
476.2689517,6041156.878300554
474.9532192,6041378.975336757
473.6482074,6041354.784784703
472.35378679999997,6041405.956680996
471.06982989999995,6041713.910385725
469.79621110000005,6041427.110762469
468.53280700000005,6041743.008657263
467.2794956999999,6041836.528282559
466.0361575,6041233.2049906235
464.80267410000005,6041624.060514527
463.5789295,6041150.09418651
462.364809,6041547.228072244
461.1601998,6041308.2262049215
459.9649909,6041105.62262457
458.7790727,6040937.801513682
457.6023374,6041659.888457318
456.4346788,6041658.817642046
455.2759921,6041472.764336949
454.12617439999997,6041477.536994748
452.9851239,6041238.320115292
451.85274060000006,6040222.543886663
450.7289258,6035541.9875427885
449.6135822,6023315.376916308
448.5066141,6000218.934952735
447.407927,5964425.128914287
446.317428,5913111.377101565
445.23502520000005,5842646.509874676
444.1606283,5751528.665749331
443.0941482,5639684.137092711
442.03549699999996,5509203.691485205
440.9845882,5364948.239391092
439.9413364,5211203.699005691
438.9056575,5048547.400145276
437.87746860000004,4882084.250502647
436.85668780000003,4713927.503658678
435.8432345,4546253.966169847
434.83702930000004,4380906.958107183
433.83799369999997,4217526.031703399
432.84605039999997,4056239.516747311
431.8611232,3897147.025029875
430.8831369,3741562.9215178327
429.9120175,3588625.280751355
428.94769169999995,3440178.480246392
427.9900874,3296497.39707999
427.03913370000004,3158336.9480399764
426.0947602,3026284.8342245664
425.1568978,2899803.069388364
424.22547829999996,2779112.1371822483
423.3004343,2664300.7547239223
422.3816994,2555095.873115661
421.4692081,2451119.046693084
420.56289569999996,2351828.6605040752
419.66269850000003,2257131.939683082
418.7685535,2167436.4509509467
417.8803987,2081291.0222297828
416.9981727,1999012.2304288999
416.12181519999996,1920350.3282233425
415.25126639999996,1845043.8418333563
414.38646760000006,1772792.6022685282
413.5273605,1703094.9183602994
412.673888,1636505.7221100896
411.8259934,1572154.383435613
410.9836208,1510417.4356848076
410.14671519999996,1451055.1182408878
409.3152221,1394005.9780759402
408.48908789999996,1339080.7328945624
407.66825960000006,1285836.9221072106
406.8526847,1234080.6686800176
406.0423117,1183966.946226887
405.2370896,1134613.8113885631
404.43696800000004,1086089.5579632137
403.64189730000004,1037865.6536339516
402.8518283,989561.2988170716
402.0667126,941393.0603109541
401.28650239999996,892858.506826823
400.5111505,844447.5544120362
399.7406101,796016.0095992369
398.9748353,748021.1743687119
398.2137806,700662.1051027636
397.457401,654379.0472306035
396.7056521,609580.6578093865
395.9584903,566307.0372115887
395.2158722,525383.6167391674
394.4777551,486705.4747496636
393.7440968,450609.59932952095
393.0148555,417278.3539959093
392.2899901,386449.6293582066
391.56946,358347.63668551296
390.853225,332595.63857951417
390.1412452,309150.9786365425
389.43348169999996,287693.4474433654
388.7298955,268029.5906959023
388.03044839999995,249931.23195925078
387.3351027,233172.51800204648
386.6438209,217612.75504772816
385.95656610000003,203174.79855243352
385.2733019,189645.73230898852
384.5939922,177061.02076787327
383.9186014,165290.62093986993
383.2470943,154374.82069804534
382.5794362,144202.01893942506
381.9155926,134793.60371082733
381.2555296,126019.02768693387
380.59921360000004,117932.84034189144
379.9466115,110417.72277788931
379.29769039999996,103494.85550882008
378.652418,97078.09860326497
378.0107622,91193.5221326125
377.37269130000004,85734.64003390733
376.73817410000004,80716.10794659531
376.1071796,76093.66354118129
375.47967719999997,71805.2828441251
374.8556368,67860.38014486177
374.2350283,64204.167548760925
373.6178223,60772.30634772345
373.0039896,57578.89022650857
372.3935012,54571.100557466976
371.78632860000005,51742.38662779746
371.1824436,49037.902227799925
370.5818182,46467.31699112047
369.98442489999996,44023.01236753391
369.39023629999997,41693.055906950285
368.7992255,39470.46567147096
368.2113658,37343.543361837554
367.6266307,35325.823017762414
367.0449943,33399.029317274864
366.4664305,31584.25311803528
365.89091410000003,29847.576855121937
365.3184196,28207.07419061712
364.7489221,26660.914338126844
364.18239689999996,25176.980542507044
363.61881960000005,23754.922141209325
363.058166,22421.33762685348
362.50041219999997,21135.359057135884
361.94553460000003,19917.811671596348
361.3935098,18763.250403750062
360.8443147,17676.61815680202
360.29792630000003,16650.57463844575
359.754322,15676.944069826115
359.2134795,14769.825946523413
358.6753765,13901.791724517683
358.1399912,13105.599981145331
357.6073018,12351.528673447969
357.077287,11635.565190065903
356.5499253,10947.110108795689
356.025196,10305.28374789883
355.50307799999996,9680.005767663326
354.983551,9099.185299024495
354.4665945,8533.601840143985
353.95218839999995,7999.292878003143
353.4403127,7516.871805081252
352.9309478,7046.271992837019
352.42407410000004,6609.216174101742
351.9196722,6191.567152077491
351.4177232,5803.333425251631
350.91820789999997,5436.247517504305
350.4211078,5089.994037619795
349.9264043,4756.579185357812
349.434079,4439.015130488109
348.9441137,4143.747891707035
348.45649060000005,3850.871881514408
347.97119169999996,3577.0365533144513
347.48819960000003,3312.1129131557286
347.0074967,3060.6440035090413
346.5290657,2813.966100869477
346.0528897,2591.0277774849856
345.5789517,2366.253354497521
345.1072349,2157.0291797303157
344.6377228,1959.507146126257
344.17039889999995,1774.1461033129249
343.70524710000007,1601.4092250292833
343.24225110000003,1438.741076836941
342.7813952,1283.2319761914596
342.32266339999995,1137.3391557641555
341.8660403,1005.8946959080369
341.4115102,883.8276756260849
340.959058,775.2578307097798
340.5086685,676.1782719672053
340.06032660000005,596.1492865484728
339.6140175,516.3498206108001
339.1697264,452.9148240327542
338.7274388,399.5392038468754
338.28714019999995,352.44348499236435
337.8488164,308.32634857732256
337.41245310000005,272.777202683806
336.9780363,243.54533859038918
336.5455522,212.48334100647145
336.114987,184.40122783353038
335.686327,157.96247147209596
335.2595588,135.4729585670473
334.834669,120.48574169456741
334.4116443,101.0895482572293
333.9904716,85.53255524677614
333.57113799999996,66.89726138474522
333.1536305,59.90705554358786
332.73793639999997,43.20331853428812
332.32404310000004,35.84152855920987
331.91193799999996,33.119629990582894
331.5016088,23.61248514542709
331.0930432,20.303163482646447
330.6862289,15.546307885853345
330.281154,8.862177913124006
329.8778065,9.115707049405435
329.47617460000004,10.889148450330222
329.07624649999997,2.0733825248121454
328.6780106,-0.2353829206112408
328.2814555,-2.6559750315924893
327.88656960000003,1.3515793539248109
327.4933418,-1.7208075007090016
327.1017607,2.2023729999165345
326.7118154,0.9548299424425648
326.32349480000005,-3.4626010507168363
325.93678789999996,2.474905567670909
325.5516841,1.1990365014239206
325.16817260000005,-0.2089920946743562
324.7862428,3.308715146900836
324.40588419999995,-1.343866251441186
324.0270864,-5.132621911306273
323.649839,0.4854992388742036
323.2741319,2.468997765974487
322.8999548,-1.9640237434282453
322.5272977,0.23484657098652645
322.1561508,1.1937712277139179
321.786504,2.268863743761232
321.4183476,2.6369415641827887
321.0516719,1.6372974860700735
320.6864673,2.5138266600414125
320.3227243,-0.7908768268219208
319.96043330000003,-4.461622034301955
319.5995851,1.4417514792493953
319.2401704,-0.7344785942213394
318.8821799,1.7851986979274654
318.5256045,0.06765265559455097
318.1704352,-0.07263691228367272
317.8166631,0.8642500362684562
317.4642791,1.4212048253805396
317.1132746,-3.2247622062478913
316.76364069999994,0.314265944968232
316.4153688,-0.3919895350515994
316.06845039999996,0.7709638284181043
315.72287689999996,-3.290470929572705
315.37863980000003,-0.2421192215161587
315.0357308,-1.9945953983359304
314.6941415,1.3337145316406422
314.3538639,-2.012875797107668
314.0148896,1.460447775959406
313.6772106,1.2111046474608422
313.3408189,1.0385504601663245
313.00570639999995,0.19886568672022206
312.67186549999997,-1.7415347087820316
312.33928810000003,3.7861941584521785
312.0079665,-2.7645535325179997
311.6778931,-0.8557501270424634
311.34906010000003,0.6526857889822012
311.0214601,0.6171082366302566
310.6950856,-0.28115158842424776
310.369929,0.7607403279720591
310.04598300000004,1.4332437479759614
309.7232403,-3.6133993622659566
309.4016935,0.291182157990904
309.0813356,-0.3142552312323247
308.7621594,0.5348019024923772
308.4441577,1.9699005629760409
308.1273236,0.19545745647696305
307.8116501,3.800464561331829
307.49713019999996,0.4840014668313549
307.18375710000004,0.05511757401949211
306.871524,0.275500966566053
306.5604242,-0.14229436750460805
306.2504509,0.5004773874934647
