wave,flux
1817.164934,-3.5076340178980496
1790.1022050000001,7.842776116571827
1763.812741,5.854616599889817
1738.2646949999998,36.03821215420177
1713.427949,106.16760435925427
1689.273995,296.096661479134
1665.7758310000002,660.6907065174661
1642.907862,1269.9475282109856
1620.64581,2195.6442064734256
1598.9666300000001,3502.487238499855
1577.8484310000001,5199.785353360463
1557.270407,7370.319480649688
1537.212767,10026.33411406001
1517.65668,13043.776305092104
1498.5842089999999,16419.374757440306
1479.978265,20039.96202435193
1461.822555,23841.768617905367
1444.101535,27800.91314422019
1426.800368,31777.321351968614
1409.904887,35787.36605753549
1393.401553,39765.361729101016
1377.2774220000001,43756.55747072945
1361.520115,47646.150700272
1346.117782,51579.7454962105
1331.059081,55498.74790311125
1316.3331449999998,59443.80391447207
1301.92956,63418.42018924832
1287.838342,67289.18603998012
1274.049912,71349.63316498519
1260.5550779999999,75289.42924141965
1247.345017,79199.54833685711
1234.4112519999999,83294.0124234845
1221.74564,87276.71303791956
1209.340352,91248.18626114496
1197.187859,95308.43961395363
1185.28092,99356.54945013982
1173.612564,103392.69982553004
1162.1760800000002,107551.28737577649
1150.9650060000001,111668.7790871939
1139.973115,115783.48917904405
1129.194406,120040.26412574506
1118.623093,124231.2779940998
1108.253594,128271.8096325271
1098.0805269999998,132513.28785719952
1088.098695,136657.98598401915
1078.303081,141034.01783928327
1068.688841,145239.21235202206
1059.251295,149633.11161059653
1049.9859199999999,154239.4224241713
1040.8883449999998,159027.58168044154
1031.9543429999999,164181.05746016648
1023.1798259999999,169734.14917150253
1014.5608390000001,175587.05003775161
1006.0935529999999,182127.87897991593
997.774265,189102.25238944613
989.5993858999999,196209.8376383345
981.5654412999999,204226.66221343607
973.6690651,212416.20428558817
965.9069952,220987.80104432147
958.2760697000001,229711.60868129547
950.7732231000001,238787.15005870038
943.3954827,247881.7574401266
936.1399648,256980.06939405488
929.0038716,266144.0109541825
921.9844879000001,274927.8020911023
915.0791782,283736.01508062833
908.2853836000002,292523.36530209193
901.6006193,301417.3432211268
895.0224714,310126.2234311749
888.548595,319168.6679645032
882.1767113,328868.2870061263
875.9046055,338488.97687261854
869.7301242999998,348904.3611340388
863.6511742999999,360770.22976078175
857.6657193,373397.5689805379
851.7717787,387886.20585856674
845.9674256000001,404031.7431864682
840.2507849,422631.63740584214
834.6200316000001,443649.0032868713
829.0733892000001,467394.314376862
823.6091279,495091.2173988624
818.2255633999999,525558.2672001204
812.9210552000001,560473.3398620189
807.694005,597863.5320848401
802.5428559,640103.5290796249
797.4660904,683374.5249864368
792.4622299,733620.1578919615
787.5298327,786303.8156032078
782.6674933999999,846182.9705513144
777.8738417999999,909906.8565581774
773.1475413,986830.7355048916
768.4872882999999,1073485.7892212726
763.8918112000001,1180382.0792294722
759.3598692,1307172.917317663
754.8902515999999,1457892.77377781
750.4817767999999,1629370.5698536588
746.1332914,1835309.2121231959
741.8436694000001,2062705.7665986498
737.6118116,2316003.4570679264
733.4366444,2593524.6838739673
729.3171195,2890653.631894365
725.2522127999999,3195095.112501325
721.2409241,3518797.006230473
717.282276,3845328.7554454007
713.3753136,4170013.2794023524
709.5191037000001,4482058.765589959
705.7127343,4778087.926093784
701.9553139,5053175.591013533
698.2459709,5299968.867869025
694.5838534,5515881.800477043
690.9681281000001,5680808.206149233
687.3979803,5813516.930859515
683.8726131,5905527.756326907
680.3912472999999,5970231.381300945
676.9531202000001,6012036.3224533135
673.557486,6032802.184102836
670.2036149,6040012.468470547
666.8907926,6042315.17231888
663.6183202999999,6041879.336444243
660.3855139,6041385.054719961
657.1917038,6042519.339663927
654.0362346,6040353.386778307
650.9184646000001,6042888.002709167
647.8377654,6043753.70639922
644.7935217999999,6042345.811524075
641.7851312999999,6042633.235982481
638.8120038,6040375.240331317
635.8735614,6039887.921861392
632.9692378999999,6040319.694046313
630.0984786,6042097.331242369
627.2607402000001,6040406.405366485
624.4554901,6042590.96046096
621.6822068,6043496.04827995
618.940379,6041506.398425239
616.2295054,6041272.217538114
613.549095,6041801.749216857
610.8986664,6041361.082099894
608.2777476,6041598.347768033
605.6858758999999,6041451.09424346
603.1225977000001,6041264.345276318
600.5874682,6041508.643020097
598.0800512,6041859.133867027
595.5999188999999,6041355.923080039
593.1466518,6041652.482348591
590.7198384999999,6041232.366274987
588.3190752,6041452.918410152
585.943966,6041671.973677186
583.5941226,6041170.09707048
581.2691637,6041517.805671045
578.9687155,6041622.678366058
576.692411,6041387.667205961
574.4398902,6040846.833114913
572.2107997,6041422.805893903
570.0047927,6041585.640422507
567.8215287,6041311.829350066
565.6606737000001,6041442.202887919
563.5218996,6041271.804245182
561.4048845,6041237.369203515
559.3093121,6041374.6839307975
557.2348721,6041474.91540083
555.1812597,6041754.025819568
553.1481756000001,6041071.609331189
551.1353259,6041617.366427027
549.1424218999999,6041360.987026863
547.1691801,6041324.287680186
545.2153222000001,6041625.471793477
543.2805745000001,6041244.659589931
541.3646685,6041272.741542525
539.46734,6041753.095782724
537.5883299,6041465.405911718
535.7273833,6041326.96466413
533.8842498,6041166.56267383
532.0586836,6041797.240446604
530.2504428000001,6041580.225560383
528.45929,6041154.984180046
526.6849915,6041401.065229561
524.927318,6041947.253813143
523.186044,6041370.361057654
521.4609475999999,6041243.60004102
519.7518110000001,6041479.769850825
518.0584200000001,6041234.92381316
516.3805639,6041657.806586272
514.7180356,6041661.093230513
513.0706316000001,6041189.506194901
511.43815149999995,6041454.76571858
509.82039860000003,6041792.361946832
508.2171791999999,6041455.608712237
506.628303,6041240.483181927
505.05358269999994,6041603.16833717
503.4928341,6041578.570507215
501.9458762,6041395.954159106
500.41253059999997,6041550.099674886
498.8926222,6041496.069536781
497.3859785,6041241.217534457
495.89242989999997,6041598.066410732
494.4118094,6041500.758904425
492.943953,6041412.340544761
491.488699,6041776.382972877
490.04588839999997,6041369.695336695
488.6153648,6041770.5059702685
487.19697429999997,6041673.814574591
485.7905654,6041278.465721361
484.39598889999996,6041387.390187271
483.01309800000007,6041265.399143723
481.64174840000004,6041106.345923449
480.28179789999996,6041309.781687225
478.93310639999993,6041274.391557141
477.59553619999997,6041696.807411955
476.2689517,6041478.330397408
474.9532192,6041015.086107543
473.6482074,6037167.109037091
472.35378679999997,6027074.946289875
471.06982989999995,6009145.565783455
469.79621110000005,5978190.075049561
468.53280700000005,5933533.3818331165
467.2794956999999,5871657.446074802
466.0361575,5789487.0267663365
464.80267410000005,5686419.987469353
463.5789295,5565876.466710417
462.364809,5429866.587445957
461.1601998,5282748.065875077
459.9649909,5127709.984833533
458.7790727,4968028.01476362
457.6023374,4807253.988664985
456.4346788,4648616.387950693
455.2759921,4493691.362463643
454.12617439999997,4342673.1165747885
452.9851239,4195926.3205534285
451.85274060000006,4051747.5776455915
450.7289258,3910638.8322504
449.6135822,3772122.224584165
448.5066141,3635873.7464362583
447.407927,3501459.5427973866
446.317428,3369290.1076951404
445.23502520000005,3240205.1147378064
444.1606283,3114126.1179588065
443.0941482,2992675.946578077
442.03549699999996,2876048.3838954833
440.9845882,2764913.4438283914
439.9413364,2659200.9592244127
438.9056575,2559531.706666924
437.87746860000004,2465151.0449419417
436.85668780000003,2375275.28323929
435.8432345,2289115.162235836
434.83702930000004,2205886.875233029
433.83799369999997,2124663.013792667
432.84605039999997,2044636.2905425448
431.8611232,1965521.700737029
430.8831369,1887884.9869546841
429.9120175,1810933.4656718841
428.94769169999995,1735492.9305577436
427.9900874,1662070.4131094832
427.03913370000004,1591254.7159072724
426.0947602,1523384.3945722457
425.1568978,1458711.0623098225
424.22547829999996,1397781.1603735976
423.3004343,1340565.3245930502
422.3816994,1286860.3330193716
421.4692081,1236980.3979460434
420.56289569999996,1189853.4148576194
419.66269850000003,1145973.1052233896
418.7685535,1104664.632628974
417.8803987,1065614.6137973154
416.9981727,1028517.5468727236
416.12181519999996,992807.5001237148
415.25126639999996,958220.567165759
414.38646760000006,924273.6384770357
413.5273605,891196.2338851396
412.673888,858391.6627593605
411.8259934,825908.2403949209
410.9836208,793708.618469627
410.14671519999996,761909.0155000503
409.3152221,730750.2470034786
408.48908789999996,700123.9871092541
407.66825960000006,670355.7594607724
406.8526847,641563.4256666736
406.0423117,613866.222354521
405.2370896,587258.8233102051
404.43696800000004,561854.1995039659
403.64189730000004,537500.5641845266
402.8518283,514135.55767547706
402.0667126,491663.0661298714
401.28650239999996,469860.46942001797
400.5111505,448666.26309575647
399.7406101,427723.7750262812
398.9748353,406981.4715206592
398.2137806,386551.76566081523
397.457401,366232.9826010692
396.7056521,346173.76345866185
395.9584903,326471.6570920071
395.2158722,307283.50729001197
394.4777551,288900.38766863715
393.7440968,271583.80995931197
393.0148555,255602.31811324513
392.2899901,240995.5741141841
391.56946,227941.2174348447
390.853225,216462.6490337476
390.1412452,206429.05976039442
389.43348169999996,197830.95466389268
388.7298955,190441.6573874034
388.03044839999995,183907.7761847529
387.3351027,178145.96331187797
386.6438209,172870.09991671814
385.95656610000003,167898.62186641572
385.2733019,162989.98897995387
384.5939922,158023.34607370044
383.9186014,152732.97749127776
383.2470943,147127.3957785535
382.5794362,141019.18794760108
381.9155926,134431.56015129015
381.2555296,127319.63780424464
380.59921360000004,119709.934809974
379.9466115,111676.69913625684
379.29769039999996,103398.93211115396
378.652418,95014.84933890178
378.0107622,86664.38889963676
377.37269130000004,78562.96027272976
376.73817410000004,70826.86690440924
376.1071796,63614.256391656396
375.47967719999997,57003.102747104094
374.8556368,51101.60136507436
374.2350283,45873.201480854616
373.6178223,41309.6993994851
373.0039896,37388.63313584872
372.3935012,34027.5170794779
371.78632860000005,31153.511809401778
371.1824436,28674.839225117834
370.5818182,26546.155823280696
369.98442489999996,24690.11468209693
369.39023629999997,23043.560605376366
368.7992255,21580.322586425445
368.2113658,20245.193816736853
367.6266307,19042.923264612233
367.0449943,17937.12432346794
366.4664305,16936.268726134564
365.89091410000003,16016.354341073322
365.3184196,15163.467365262246
364.7489221,14370.276794015068
364.18239689999996,13640.403845985084
363.61881960000005,12961.32627949687
363.058166,12315.537058834036
362.50041219999997,11709.334023964146
361.94553460000003,11131.81563139446
361.3935098,10584.445278468324
360.8443147,10050.643778904609
360.29792630000003,9553.991856208719
359.754322,9078.694333619134
359.2134795,8629.77041808506
358.6753765,8205.588181408059
358.1399912,7796.081149100627
357.6073018,7417.200822584834
357.077287,7043.119776585482
356.5499253,6697.706998331137
356.025196,6354.436424513794
355.50307799999996,6036.327764751208
354.983551,5723.250130079677
354.4665945,5415.578885491388
353.95218839999995,5115.74423469142
353.4403127,4837.878868942468
352.9309478,4568.204421775993
352.42407410000004,4305.556584674397
351.9196722,4054.1425356173295
351.4177232,3825.7201623514534
350.91820789999997,3594.485742399098
350.4211078,3383.988816286403
349.9264043,3177.6243357914036
349.434079,2981.8498261383784
348.9441137,2794.3448416160213
348.45649060000005,2613.9242996291005
347.97119169999996,2448.6386215188777
347.48819960000003,2293.5176660238103
347.0074967,2146.9176429508693
346.5290657,2006.1294598867053
346.0528897,1880.326016787483
345.5789517,1760.429388014398
345.1072349,1643.2116328778027
344.6377228,1542.5149428002471
344.17039889999995,1444.6345960853948
343.70524710000007,1353.7424514765926
343.24225110000003,1271.5085859783044
342.7813952,1183.0243555569475
342.32266339999995,1099.7415359252568
341.8660403,1023.2125198429557
341.4115102,952.8149410484327
340.959058,885.6147244971429
340.5086685,819.231717506521
340.06032660000005,760.6659752648242
339.6140175,705.4778037539903
339.1697264,654.5827366819142
338.7274388,606.5035767067379
338.28714019999995,567.8426427493298
337.8488164,536.4382655619537
337.41245310000005,499.9834029846997
336.9780363,471.6877625226327
336.5455522,440.67697576204284
336.114987,421.72061574843735
335.686327,393.7925283224768
335.2595588,371.25900964184035
334.834669,345.8734678086675
334.4116443,316.4882145483715
333.9904716,291.9196338387487
333.57113799999996,269.3394898780277
333.1536305,243.3497301461896
332.73793639999997,220.14524627915324
332.32404310000004,197.64288831498612
331.91193799999996,172.60972606099304
331.5016088,148.90704619381782
331.0930432,123.03683453445059
330.6862289,98.0116572510174
330.281154,78.55466465340032
329.8778065,61.7778343744744
329.47617460000004,44.33203473094154
329.07624649999997,32.39702669921537
328.6780106,19.191697371164103
328.2814555,12.961895944619153
327.88656960000003,4.433078442820019
327.4933418,5.565554564616513
327.1017607,4.01774389357648
326.7118154,2.8344357635450965
326.32349480000005,3.6099434741709446
325.93678789999996,4.631016011392437
325.5516841,0.040435904982858865
325.16817260000005,-3.517331018908167
324.7862428,-1.279384476327814
324.40588419999995,0.6228221477784353
324.0270864,1.2229288903245012
323.649839,-1.6073835061608548
323.2741319,-0.5434786070374551
322.8999548,0.9066576645331196
322.5272977,0.0030843479542517985
322.1561508,0.2637538322617822
321.786504,1.8906860228837281
321.4183476,-1.2990702266756822
321.0516719,-0.30227968722439885
320.6864673,-3.9034862375444273
320.3227243,5.440903160793816
319.96043330000003,-3.5624703857586724
319.5995851,-0.5235149641208712
319.2401704,-4.106260701637621
318.8821799,1.0748519724500636
318.5256045,-1.2262007658949765
318.1704352,2.7404721159411736
317.8166631,-2.4729712827823196
317.4642791,2.9663285238430754
317.1132746,1.7671920307288995
316.76364069999994,5.596419109407908
316.4153688,-0.6657687839211414
316.06845039999996,0.18279405964687803
315.72287689999996,1.359047149259233
315.37863980000003,-0.926585100150242
315.0357308,1.4426397590818123
314.6941415,0.07369579862382122
314.3538639,-0.5537498473856843
314.0148896,-3.2574670546990085
313.6772106,-0.4136190264649108
313.3408189,0.21308206343471053
313.00570639999995,0.22025108796610726
312.67186549999997,3.588860247286413
312.33928810000003,0.6497467165490811
312.0079665,3.1386445974043444
311.6778931,-2.501466613959128
311.34906010000003,-4.407813781216044
311.0214601,-0.6003717494767877
310.6950856,0.2854317309818986
310.369929,-3.234906471285041
310.04598300000004,-3.3092440501839913
309.7232403,0.0623666530871347
309.4016935,0.4364826976136416
309.0813356,0.7839157247476384
308.7621594,-5.374170014314409
308.4441577,3.929031642827118
308.1273236,1.6326043320307926
307.8116501,-3.1652485296851958
307.49713019999996,-1.5788890197511145
307.18375710000004,-0.6968758298206965
306.871524,-0.6443525039388367
306.5604242,2.019210555588581
306.2504509,-5.154878130065933
