wave,flux
1817.164934,0.708077043100448
1790.1022050000001,-13.206627856036851
1763.812741,9.590542637250195
1738.2646949999998,45.181795192872094
1713.427949,104.61591921200028
1689.273995,971.9911449047715
1665.7758310000002,2792.874542800161
1642.907862,5651.07978483865
1620.64581,9643.674054201436
1598.9666300000001,14822.150700470718
1577.8484310000001,21274.39883096646
1557.270407,28952.841636202967
1537.212767,38003.60357380816
1517.65668,47005.30577569885
1498.5842089999999,55666.981977067575
1479.978265,63986.890776977765
1461.822555,71945.31082938086
1444.101535,79315.40524076653
1426.800368,86075.1881112822
1409.904887,92044.9475051749
1393.401553,97184.92780229679
1377.2774220000001,102106.71723922818
1361.520115,106969.91656508297
1346.117782,111613.37808245489
1331.059081,116121.6748088876
1316.3331449999998,120531.27264360154
1301.92956,124924.4104579122
1287.838342,129290.42504293052
1274.049912,133671.60211263018
1260.5550779999999,138084.42777475758
1247.345017,142651.56642684573
1234.4112519999999,147259.44251981255
1221.74564,151759.04281226176
1209.340352,156437.09076116412
1197.187859,160934.35302472988
1185.28092,165554.1055600807
1173.612564,169929.96608165329
1162.1760800000002,174345.75860799008
1150.9650060000001,178803.35097750477
1139.973115,182905.83909478234
1129.194406,187058.60433005434
1118.623093,191137.36835874495
1108.253594,195126.97831048974
1098.0805269999998,198954.7195853664
1088.098695,203119.21726551687
1078.303081,207183.97955698692
1068.688841,211610.2489778471
1059.251295,216723.55771393172
1049.9859199999999,222531.62816244966
1040.8883449999998,229332.55812836374
1031.9543429999999,237029.75531344808
1023.1798259999999,246393.0838131364
1014.5608390000001,257131.6112918932
1006.0935529999999,269131.56781063
997.774265,282340.2254426328
989.5993858999999,296628.9063753311
981.5654412999999,311616.2316419683
973.6690651,326960.4881012619
965.9069952,342433.99650513305
958.2760697000001,357500.7285486397
950.7732231000001,371751.25346792734
943.3954827,385687.20145451627
936.1399648,398340.58709800354
929.0038716,409863.83456926094
921.9844879000001,420513.2136560729
915.0791782,429997.1860712035
908.2853836000002,439131.4549994064
901.6006193,447651.37223948725
895.0224714,456838.3573857445
888.548595,466629.0642630346
882.1767113,478618.01856693847
875.9046055,491817.8438576036
869.7301242999998,509036.8581281399
863.6511742999999,528719.0123408767
857.6657193,554005.8030149698
851.7717787,583788.5695409926
845.9674256000001,620398.2306694642
840.2507849,664351.3263816304
834.6200316000001,717766.4477332043
829.0733892000001,779910.3243411176
823.6091279,851556.2942034488
818.2255633999999,932631.4187538776
812.9210552000001,1020118.9225385031
807.694005,1116824.647029833
802.5428559,1213950.06547234
797.4660904,1316762.2209577323
792.4622299,1419777.206537793
787.5298327,1531651.318307597
782.6674933999999,1652643.2380698773
777.8738417999999,1792505.7473673339
773.1475413,1966288.4608046869
768.4872882999999,2179433.925934526
763.8918112000001,2447820.045636407
759.3598692,2767536.239135969
754.8902515999999,3127227.931195042
750.4817767999999,3525712.0993629983
746.1332914,3941004.117126826
741.8436694000001,4365981.864000633
737.6118116,4768451.116911996
733.4366444,5121417.6683659
729.3171195,5415604.218409417
725.2522127999999,5642675.3198944535
721.2409241,5812297.0512917265
717.282276,5926903.330035724
713.3753136,5996285.976371712
709.5191037000001,6030127.387062998
705.7127343,6043904.604191754
701.9553139,6042057.679025037
698.2459709,6040206.153373987
694.5838534,6041564.455793053
690.9681281000001,6040010.450841369
687.3979803,6043965.492339238
683.8726131,6043677.807294075
680.3912472999999,6040954.7461221535
676.9531202000001,6040853.882218927
673.557486,6043560.650349538
670.2036149,6041136.993631847
666.8907926,6042899.5444853585
663.6183202999999,6041148.543258337
660.3855139,6041690.381562296
657.1917038,6042005.886529231
654.0362346,6040138.15224803
650.9184646000001,6041386.779610613
647.8377654,6039972.3303258475
644.7935217999999,6040791.51954015
641.7851312999999,6041541.4844846325
638.8120038,6040098.584728887
635.8735614,6041694.90977993
632.9692378999999,6041493.87380291
630.0984786,6042028.1897016335
627.2607402000001,6040070.0767985415
624.4554901,6041302.101391186
621.6822068,6041780.84696089
618.940379,6040242.860672934
616.2295054,6041262.562286208
613.549095,6041080.172004536
610.8986664,6041089.142577105
608.2777476,6041552.921197075
605.6858758999999,6041337.6675027525
603.1225977000001,6041121.828369257
600.5874682,6041480.21417981
598.0800512,6041422.290976487
595.5999188999999,6041174.430216228
593.1466518,6041337.63105905
590.7198384999999,6041244.1513906885
588.3190752,6041152.417686462
585.943966,6041740.7445928985
583.5941226,6041292.959998762
581.2691637,6041463.164770839
578.9687155,6041800.356673097
576.692411,6041675.541239577
574.4398902,6041425.248604857
572.2107997,6041746.725130117
570.0047927,6041243.091899041
567.8215287,6041544.517220935
565.6606737000001,6041567.921445867
563.5218996,6041307.355473361
561.4048845,6041459.876952425
559.3093121,6041277.107910912
557.2348721,6040969.610933241
555.1812597,6040965.754916215
553.1481756000001,6041535.735849756
551.1353259,6041070.85459872
549.1424218999999,6041337.807357388
547.1691801,6041483.35682207
545.2153222000001,6041415.484851999
543.2805745000001,6041226.84868765
541.3646685,6041515.0665604165
539.46734,6041184.522351052
537.5883299,6041144.428067127
535.7273833,6041339.042408363
533.8842498,6041198.515601398
532.0586836,6040916.504083402
530.2504428000001,6041117.331525124
528.45929,6041435.50868287
526.6849915,6041529.126803335
524.927318,6041337.497977511
523.186044,6041574.538837592
521.4609475999999,6041303.145660124
519.7518110000001,6041386.753468082
518.0584200000001,6041746.21436795
516.3805639,6041250.479532876
514.7180356,6041759.970905374
513.0706316000001,6041390.135259775
511.43815149999995,6041677.116139556
509.82039860000003,6041302.920234652
508.2171791999999,6040955.535780973
506.628303,6041378.542996074
505.05358269999994,6041343.671561949
503.4928341,6041249.115523152
501.9458762,6040922.325298578
500.41253059999997,6041366.725124221
498.8926222,6040831.660272428
497.3859785,6041186.746614733
495.89242989999997,6041380.815951615
494.4118094,6041152.074231184
492.943953,6041730.820699184
491.488699,6041664.456394358
490.04588839999997,6041362.635045143
488.6153648,6041202.082007432
487.19697429999997,6041573.554837445
485.7905654,6041469.338567132
484.39598889999996,6041224.472235653
483.01309800000007,6041446.476058362
481.64174840000004,6040974.431790727
480.28179789999996,6041455.9002368385
478.93310639999993,6041550.45231704
477.59553619999997,6041356.5559935
476.2689517,6041707.613934968
474.9532192,6041352.865174895
473.6482074,6041342.932738991
472.35378679999997,6041281.506746963
471.06982989999995,6041332.157634455
469.79621110000005,6041517.0780711565
468.53280700000005,6041018.547621448
467.2794956999999,6041128.970387886
466.0361575,6041095.009419579
464.80267410000005,6041161.74285408
463.5789295,6041101.743726322
462.364809,6041689.0204568375
461.1601998,6041496.233755946
459.9649909,6041539.1324469475
458.7790727,6040915.717602612
457.6023374,6041623.929353557
456.4346788,6041588.1566540925
455.2759921,6041472.747174517
454.12617439999997,6041380.925993522
452.9851239,6038659.835092482
451.85274060000006,6028269.274818475
450.7289258,6007102.778976913
449.6135822,5972622.064308452
448.5066141,5922507.840634912
447.407927,5855060.708187278
446.317428,5770676.380313264
445.23502520000005,5670452.633288624
444.1606283,5562872.868138631
443.0941482,5459763.517620657
442.03549699999996,5370367.47939946
440.9845882,5304071.531772695
439.9413364,5267790.875658134
438.9056575,5265416.3135358235
437.87746860000004,5296430.975595938
436.85668780000003,5358423.849364243
435.8432345,5441700.587977833
434.83702930000004,5532365.165883146
433.83799369999997,5617759.405558567
432.84605039999997,5682300.988133263
431.8611232,5715912.649753458
430.8831369,5707704.740897005
429.9120175,5653445.981201875
428.94769169999995,5552976.2971725715
427.9900874,5408775.8032644065
427.03913370000004,5228601.3372045085
426.0947602,5023196.619801365
425.1568978,4803694.181590985
424.22547829999996,4582835.86742084
423.3004343,4371486.845112862
422.3816994,4179705.365252668
421.4692081,4013867.229167367
420.56289569999996,3877162.1695066006
419.66269850000003,3771588.438336968
418.7685535,3695394.21082772
417.8803987,3645373.5481424173
416.9981727,3618044.46086327
416.12181519999996,3606897.660891436
415.25126639999996,3607392.959848913
414.38646760000006,3616147.363234093
413.5273605,3629271.4351981664
412.673888,3643942.7056147363
411.8259934,3658780.560000385
410.9836208,3672256.893804325
410.14671519999996,3682822.3750853087
409.3152221,3690450.2935579987
408.48908789999996,3693060.560949754
407.66825960000006,3690148.7057754523
406.8526847,3679361.680185756
406.0423117,3658904.3403888396
405.2370896,3626072.542435642
404.43696800000004,3580018.7001103577
403.64189730000004,3519041.186451908
402.8518283,3442581.976075698
402.0667126,3351042.2728745667
401.28650239999996,3244824.9937430443
400.5111505,3127080.3758785436
399.7406101,2998356.6514695333
398.9748353,2862141.0610321374
398.2137806,2721218.657327441
397.457401,2578201.72244539
396.7056521,2435491.248280546
395.9584903,2294910.751424029
395.2158722,2157220.710064939
394.4777551,2024380.5679204797
393.7440968,1897688.2207953525
393.0148555,1778023.9296637834
392.2899901,1665347.300286372
391.56946,1560649.4435363878
390.853225,1464242.8567818822
390.1412452,1376693.8850565362
389.43348169999996,1298071.3966836748
388.7298955,1227939.1891053123
388.03044839999995,1166582.7154779357
387.3351027,1113051.5673893157
386.6438209,1067272.819177796
385.95656610000003,1028688.03881534
385.2733019,996541.8131565764
384.5939922,970349.124629556
383.9186014,949906.701417221
383.2470943,934470.1834354694
382.5794362,924193.9784337641
381.9155926,919051.8188244671
381.2555296,918773.7134520231
380.59921360000004,923369.8859923123
379.9466115,932958.6713439162
379.29769039999996,946789.1478248694
378.652418,964910.3330615348
378.0107622,986306.360882938
377.37269130000004,1010495.5203090936
376.73817410000004,1036543.2851184079
376.1071796,1063506.4521173574
375.47967719999997,1090307.1941190576
374.8556368,1116359.6863959923
374.2350283,1140948.6834829496
373.6178223,1163409.2806783984
373.0039896,1183683.3337410649
372.3935012,1201219.2549509169
371.78632860000005,1216067.7588755658
371.1824436,1227932.3745488895
370.5818182,1236998.5930391273
369.98442489999996,1243267.9545505824
369.39023629999997,1246795.3446107977
368.7992255,1247465.3111672378
368.2113658,1245425.9934186006
367.6266307,1240457.4950823928
367.0449943,1233498.330620892
366.4664305,1224340.9913457518
365.89091410000003,1213534.15208454
365.3184196,1201249.985063448
364.7489221,1188302.1648349485
364.18239689999996,1175044.1183817938
363.61881960000005,1161737.0088973304
363.058166,1148572.336083257
362.50041219999997,1135464.1867298696
361.94553460000003,1122507.69525493
361.3935098,1109242.7770806628
360.8443147,1095588.2452435282
360.29792630000003,1080840.400543696
359.754322,1064534.680199054
359.2134795,1046635.7267381176
358.6753765,1026353.1397056466
358.1399912,1003550.4876933324
357.6073018,978207.8773418728
357.077287,950005.3999938646
356.5499253,919179.0559798074
356.025196,886130.7556803613
355.50307799999996,851292.738784455
354.983551,814904.3881395389
354.4665945,777968.6665341612
353.95218839999995,741092.6926886924
353.4403127,705287.8070567382
352.9309478,671189.0215649814
352.42407410000004,639821.3941660004
351.9196722,611745.9121923973
351.4177232,587465.5791678815
350.91820789999997,567090.4855694665
350.4211078,550911.0037309513
349.9264043,538566.7213535968
349.434079,529594.9947944253
348.9441137,523504.3465426593
348.45649060000005,519622.99706537346
347.97119169999996,516826.0245108727
347.48819960000003,514793.33747677505
347.0074967,512657.36221483396
346.5290657,509779.80654944654
346.0528897,505807.7778854103
345.5789517,500245.798536215
345.1072349,493341.6615686236
344.6377228,484747.4221004033
344.17039889999995,474843.54502732726
343.70524710000007,463750.4106465776
343.24225110000003,451846.9964104497
342.7813952,439417.2399095079
342.32266339999995,426746.3550091655
341.8660403,414026.279077799
341.4115102,401458.0927339711
340.959058,388860.9501255753
340.5086685,376254.5268704807
340.06032660000005,363155.2259333842
339.6140175,349622.86888118763
339.1697264,335311.2704266753
338.7274388,319889.8934407137
338.28714019999995,303461.59910934325
337.8488164,286013.35147457715
337.41245310000005,267830.5909841509
336.9780363,249117.39228680922
336.5455522,230250.7057583
336.114987,211719.55110451745
335.686327,193981.55594516065
335.2595588,177310.17600564336
334.834669,161989.6685827559
334.4116443,148155.84119893954
333.9904716,135797.11041562905
333.57113799999996,124832.45981121401
333.1536305,115111.56930054852
332.73793639999997,106453.8344523182
332.32404310000004,98557.08385460304
331.91193799999996,91240.56477935023
331.5016088,84408.03020757553
331.0930432,77891.83191646489
330.6862289,71704.96313516647
330.281154,65791.4870073935
329.8778065,60230.86581399133
329.47617460000004,55004.45549490472
329.07624649999997,50205.05314475198
328.6780106,45818.33884999815
328.2814555,41924.41804285777
327.88656960000003,38467.7775105534
327.4933418,35469.825463155226
327.1017607,32889.72942472915
326.7118154,30679.716280280107
326.32349480000005,28763.183922157452
325.93678789999996,27130.798823572535
325.5516841,25678.77198506041
325.16817260000005,24433.958723690303
324.7862428,23317.764577401907
324.40588419999995,22285.90797052452
324.0270864,21314.438072247907
323.649839,20418.992419831968
323.2741319,19571.307980426733
322.8999548,18762.285786729568
322.5272977,17979.822905199206
322.1561508,17232.060769904958
321.786504,16510.766215248797
321.4183476,15804.758161652051
321.0516719,15133.007620102388
320.6864673,14492.968166985318
320.3227243,13884.793713044544
319.96043330000003,13292.268263601736
319.5995851,12709.030142092939
319.2401704,12156.41803862295
318.8821799,11612.345161146804
318.5256045,11096.361880338602
318.1704352,10582.583307150258
317.8166631,10096.295232115743
317.4642791,9620.143143979241
317.1132746,9151.558620890732
316.76364069999994,8686.162967985094
316.4153688,8238.034957931053
316.06845039999996,7812.6435094225635
315.72287689999996,7407.998962889472
315.37863980000003,7023.069768689486
315.0357308,6650.408357656342
314.6941415,6295.220754448696
314.3538639,5968.7478943302285
314.0148896,5647.658729734829
313.6772106,5363.973084170113
313.3408189,5094.055236233488
313.00570639999995,4837.3478020842185
312.67186549999997,4617.20084317904
312.33928810000003,4411.158728727546
312.0079665,4211.79425379947
311.6778931,4049.607006281488
311.34906010000003,3882.257975724499
311.0214601,3715.3129057074493
310.6950856,3560.9207277354826
310.369929,3419.3621175003364
310.04598300000004,3270.483564331894
309.7232403,3126.997279707601
309.4016935,2970.1174493483477
309.0813356,2815.084418347561
308.7621594,2668.737304407664
308.4441577,2529.000045389808
308.1273236,2379.573500952525
307.8116501,2238.2641152008678
307.49713019999996,1820.9539996067583
307.18375710000004,1472.1549043380926
306.871524,1142.0538797439915
306.5604242,836.4670823728168
306.2504509,571.3791994571196
