wave,flux
1817.164934,2.8637998241686837
1790.1022050000001,-1.8873562396466648
1763.812741,15.17219788449082
1738.2646949999998,19.59753815904412
1713.427949,72.81466330837856
1689.273995,241.11741975149414
1665.7758310000002,624.2181964029471
1642.907862,1294.5222738809084
1620.64581,2264.799568550869
1598.9666300000001,3558.7589683193323
1577.8484310000001,5283.786466563619
1557.270407,7407.162768902272
1537.212767,9960.106834350896
1517.65668,12824.617293966976
1498.5842089999999,15814.027978229675
1479.978265,18949.222998019555
1461.822555,22131.313174899762
1444.101535,25324.517508841167
1426.800368,28544.303674669147
1409.904887,31696.9976656474
1393.401553,34686.86927875422
1377.2774220000001,37685.98674679623
1361.520115,40677.85044044523
1346.117782,43635.80687417408
1331.059081,46644.48599783881
1316.3331449999998,49721.144301581866
1301.92956,52669.70543059563
1287.838342,55812.76842128501
1274.049912,58975.02525164437
1260.5550779999999,62125.10012580693
1247.345017,65361.67556351858
1234.4112519999999,68684.86472851224
1221.74564,71903.40052793744
1209.340352,75235.81829409064
1197.187859,78603.5321069437
1185.28092,81919.99852203981
1173.612564,85321.75182719411
1162.1760800000002,88800.64990392824
1150.9650060000001,92216.07102547858
1139.973115,95648.20817647096
1129.194406,99228.43399313706
1118.623093,102688.60600518156
1108.253594,106115.69698253163
1098.0805269999998,109677.80206786846
1088.098695,113303.32554546293
1078.303081,116871.46865058252
1068.688841,120573.89376753695
1059.251295,124373.43198593533
1049.9859199999999,128499.70391754244
1040.8883449999998,132820.60809068746
1031.9543429999999,137218.48878634765
1023.1798259999999,142336.5963238595
1014.5608390000001,147758.70728315847
1006.0935529999999,153493.22711109364
997.774265,160039.64254568348
989.5993858999999,166852.87768794925
981.5654412999999,173879.15704191677
973.6690651,181563.3363159404
965.9069952,189271.63313735972
958.2760697000001,197109.00138976434
950.7732231000001,204751.68128757516
943.3954827,212749.04263066914
936.1399648,220465.8519738689
929.0038716,228133.10988830554
921.9844879000001,235772.37140885065
915.0791782,242944.48384938302
908.2853836000002,250333.72583014733
901.6006193,257505.2345451292
895.0224714,265178.27715251147
888.548595,272524.5836984114
882.1767113,280707.43396616174
875.9046055,289523.0221873136
869.7301242999998,299003.8656567332
863.6511742999999,309864.3504312556
857.6657193,321819.48892440763
851.7717787,335235.8623644185
845.9674256000001,350738.4430854321
840.2507849,368765.31384298304
834.6200316000001,388696.0833214533
829.0733892000001,411591.88289271534
823.6091279,437834.97272604296
818.2255633999999,467272.7381659984
812.9210552000001,499545.14196299313
807.694005,534358.702387879
802.5428559,572801.6118522515
797.4660904,614201.0699430064
792.4622299,656357.0781644548
787.5298327,703087.9222599878
782.6674933999999,751925.4180501881
777.8738417999999,808586.524601836
773.1475413,876309.8639711342
768.4872882999999,956499.5654931571
763.8918112000001,1049484.103275385
759.3598692,1165590.5057904646
754.8902515999999,1304919.991909371
750.4817767999999,1468272.9502629754
746.1332914,1655791.7476194869
741.8436694000001,1865034.916588422
737.6118116,2093065.0692795215
733.4366444,2334766.7130471426
729.3171195,2586979.548295662
725.2522127999999,2846279.5648529488
721.2409241,3111121.858738987
717.282276,3387986.3487874162
713.3753136,3673034.879918897
709.5191037000001,3963347.956427297
705.7127343,4251466.673952103
701.9553139,4539611.88605948
698.2459709,4824342.959057949
694.5838534,5091833.346231361
690.9681281000001,5339532.587112611
687.3979803,5543676.319832308
683.8726131,5707185.369587186
680.3912472999999,5834547.295974956
676.9531202000001,5927447.352457415
673.557486,5990354.561255203
670.2036149,6027015.486602332
666.8907926,6039306.464266162
663.6183202999999,6041257.44775018
660.3855139,6039099.956415045
657.1917038,6041387.000893108
654.0362346,6040623.164750186
650.9184646000001,6042042.39139569
647.8377654,6043228.006358511
644.7935217999999,6041281.321113506
641.7851312999999,6041903.9358489625
638.8120038,6041236.903101644
635.8735614,6041429.224305189
632.9692378999999,6042027.642196697
630.0984786,6042669.395796622
627.2607402000001,6041503.394166294
624.4554901,6040258.38608156
621.6822068,6041971.822570751
618.940379,6041375.296455745
616.2295054,6040866.140637468
613.549095,6041546.443916959
610.8986664,6041437.821486731
608.2777476,6041404.985852983
605.6858758999999,6041878.521151463
603.1225977000001,6041682.7187501
600.5874682,6041133.749549707
598.0800512,6041506.334804282
595.5999188999999,6041499.377882457
593.1466518,6041498.089597347
590.7198384999999,6041224.477621608
588.3190752,6041439.304984148
585.943966,6041264.1923024
583.5941226,6041658.367500831
581.2691637,6041730.408524139
578.9687155,6041316.762012045
576.692411,6041518.897516001
574.4398902,6041314.580905565
572.2107997,6041401.397126099
570.0047927,6041484.609497293
567.8215287,6041103.412567269
565.6606737000001,6041656.186800169
563.5218996,6041525.081699397
561.4048845,6041103.099794046
559.3093121,6041275.724939187
557.2348721,6041593.538487707
555.1812597,6041283.170509517
553.1481756000001,6041534.098919758
551.1353259,6041842.51422413
549.1424218999999,6041289.22831446
547.1691801,6041365.2112808125
545.2153222000001,6041360.663433751
543.2805745000001,6041313.82686793
541.3646685,6041234.207633156
539.46734,6041426.622990451
537.5883299,6040989.512118451
535.7273833,6041532.851850018
533.8842498,6041456.677861658
532.0586836,6041483.453151748
530.2504428000001,6041292.204605193
528.45929,6041156.105409171
526.6849915,6041457.624123341
524.927318,6041194.772931567
523.186044,6041555.270222347
521.4609475999999,6040814.599789436
519.7518110000001,6041347.125674862
518.0584200000001,6041681.819489673
516.3805639,6041127.26694887
514.7180356,6041284.392075764
513.0706316000001,6041650.644874844
511.43815149999995,6041640.627752048
509.82039860000003,6041632.529809631
508.2171791999999,6041712.636508687
506.628303,6041573.037426377
505.05358269999994,6041422.876047398
503.4928341,6041587.514302515
501.9458762,6041447.655183532
500.41253059999997,6041291.910764755
498.8926222,6041822.633930085
497.3859785,6041112.133885952
495.89242989999997,6041132.9260343015
494.4118094,6041741.632086895
492.943953,6041137.591035417
491.488699,6041036.762544429
490.04588839999997,6041507.999320952
488.6153648,6041642.279441028
487.19697429999997,6041395.5033473335
485.7905654,6041733.722547941
484.39598889999996,6041574.5753880385
483.01309800000007,6041531.507719757
481.64174840000004,6041291.144289077
480.28179789999996,6041188.663005704
478.93310639999993,6041482.258449713
477.59553619999997,6041279.688048834
476.2689517,6041952.157876335
474.9532192,6041716.656252272
473.6482074,6041269.770113755
472.35378679999997,6041457.381758814
471.06982989999995,6041499.542093622
469.79621110000005,6041650.346895562
468.53280700000005,6041576.6481575975
467.2794956999999,6041168.986184957
466.0361575,6041436.393065775
464.80267410000005,6041544.086889046
463.5789295,6041708.6666858215
462.364809,6041439.1967337085
461.1601998,6041891.430896324
459.9649909,6041436.916030562
458.7790727,6041086.816632208
457.6023374,6041234.496854182
456.4346788,6041756.927178333
455.2759921,6041267.606149736
454.12617439999997,6041213.086671821
452.9851239,6041728.661202091
451.85274060000006,6041368.70705223
450.7289258,6041156.623425301
449.6135822,6041589.4684275575
448.5066141,6041552.856288978
447.407927,6041568.603311121
446.317428,6041665.504293139
445.23502520000005,6041115.872394935
444.1606283,6040731.3438737625
443.0941482,6039230.478395555
442.03549699999996,6034754.593498373
440.9845882,6024965.226197321
439.9413364,6010526.782847027
438.9056575,5988559.569229723
437.87746860000004,5956149.026554295
436.85668780000003,5911738.5977975475
435.8432345,5854427.101612437
434.83702930000004,5782686.991308757
433.83799369999997,5696754.02937783
432.84605039999997,5597216.144978771
431.8611232,5484515.341406225
430.8831369,5360278.359401334
429.9120175,5227059.007633284
428.94769169999995,5087799.1692016125
427.9900874,4944338.720565286
427.03913370000004,4799773.859569788
426.0947602,4656881.180700156
425.1568978,4518061.915757705
424.22547829999996,4384837.45163131
423.3004343,4259383.136608006
422.3816994,4141943.4991865535
421.4692081,4032407.77547774
420.56289569999996,3930883.61192904
419.66269850000003,3836736.0965662436
418.7685535,3748454.60402832
417.8803987,3664628.632594575
416.9981727,3583560.155132102
416.12181519999996,3504449.663298313
415.25126639999996,3426499.6422767914
414.38646760000006,3347933.45964789
413.5273605,3268580.3975136136
412.673888,3188334.408226085
411.8259934,3107278.2732426818
410.9836208,3024823.77159557
410.14671519999996,2942245.036417036
409.3152221,2859470.268443055
408.48908789999996,2776779.916212284
407.66825960000006,2694384.086436559
406.8526847,2612993.4275839096
406.0423117,2532135.21348542
405.2370896,2452361.250973633
404.43696800000004,2373720.58677375
403.64189730000004,2296104.599136694
402.8518283,2219582.2872665687
402.0667126,2144580.585258293
401.28650239999996,2071006.786088911
400.5111505,1998583.037919073
399.7406101,1927275.1249358102
398.9748353,1857695.4691545255
398.2137806,1789366.9204171216
397.457401,1722472.7914588253
396.7056521,1656876.4403935634
395.9584903,1592562.1266777024
395.2158722,1529656.367983199
394.4777551,1467975.4422357203
393.7440968,1408051.8948421434
393.0148555,1349466.7120022653
392.2899901,1292702.056064053
391.56946,1237615.857871536
390.853225,1184200.604148102
390.1412452,1132532.8053445038
389.43348169999996,1082701.7761374982
388.7298955,1034863.0369157076
388.03044839999995,988788.8068294849
387.3351027,944464.9632695615
386.6438209,902438.1571769204
385.95656610000003,862645.6372953566
385.2733019,825102.8547384648
384.5939922,789875.2698271398
383.9186014,757344.4909532224
383.2470943,727143.5495935222
382.5794362,699310.5299444502
381.9155926,673685.6303835588
381.2555296,650113.4561789
380.59921360000004,628285.2894424802
379.9466115,607835.3458117225
379.29769039999996,588718.4190619462
378.652418,570761.1795698168
378.0107622,553780.3875647396
377.37269130000004,537716.2847952731
376.73817410000004,522597.35025286593
376.1071796,508277.6601313026
375.47967719999997,495006.69077075727
374.8556368,482695.31708276103
374.2350283,471314.306307125
373.6178223,461161.5156651941
373.0039896,451956.6493601917
372.3935012,443933.15241477743
371.78632860000005,436881.2217605486
371.1824436,430974.98839272937
370.5818182,425960.29154862155
369.98442489999996,421858.10734979744
369.39023629999997,418547.98195281404
368.7992255,415849.52965344995
368.2113658,413592.9545482644
367.6266307,411616.8963698037
367.0449943,409753.9928667443
366.4664305,407631.40649033815
365.89091410000003,405217.5078497365
365.3184196,402285.3339063128
364.7489221,398675.5134178864
364.18239689999996,394310.59967458475
363.61881960000005,389070.15397576743
363.058166,383117.87189470034
362.50041219999997,376433.057595262
361.94553460000003,369158.8973396981
361.3935098,361428.4911549376
360.8443147,353365.75359563483
360.29792630000003,345143.3478147616
359.754322,336946.3175656784
359.2134795,328878.52284893784
358.6753765,321000.9319885133
358.1399912,313464.7918890147
357.6073018,306158.3377390156
357.077287,299208.6481157552
356.5499253,292587.1517336909
356.025196,286153.3597384492
355.50307799999996,279936.08465689205
354.983551,273772.7971517584
354.4665945,267685.27639052144
353.95218839999995,261614.58398020372
353.4403127,255512.40479240575
352.9309478,249422.6191214839
352.42407410000004,243349.48040335378
351.9196722,237244.5775297045
351.4177232,231263.79273751352
350.91820789999997,225412.7731990294
350.4211078,219618.70312095247
349.9264043,213901.1859412061
349.434079,208252.44923531575
348.9441137,202688.51655317933
348.45649060000005,197201.8535325864
347.97119169999996,191655.03522203036
347.48819960000003,186160.80155886692
347.0074967,180646.69406197808
346.5290657,175188.0126610985
346.0528897,169705.05509693
345.5789517,164334.66422907865
345.1072349,158944.431647814
344.6377228,153604.54602643114
344.17039889999995,148265.03357871206
343.70524710000007,142959.27642524368
343.24225110000003,137589.39576736046
342.7813952,132213.5111598371
342.32266339999995,126798.9350884265
341.8660403,121350.1549367558
341.4115102,115855.72525281545
340.959058,110366.53874208759
340.5086685,104967.01527759935
340.06032660000005,99589.69770270864
339.6140175,94324.45100175917
339.1697264,89182.37329660273
338.7274388,84240.38865262421
338.28714019999995,79483.42021616957
337.8488164,74906.61841011667
337.41245310000005,70564.31064275031
336.9780363,66455.79654620175
336.5455522,62541.828209135
336.114987,58866.131833081345
335.686327,55442.004600502354
335.2595588,52199.06097605562
334.834669,49222.203207044004
334.4116443,46410.21466339215
333.9904716,43759.739976228746
333.57113799999996,41219.578723269085
333.1536305,38823.94730353812
332.73793639999997,36466.8535416361
332.32404310000004,34186.921115026445
331.91193799999996,31916.54249492336
331.5016088,29667.22664784496
331.0930432,27456.179934613945
330.6862289,25271.98190787484
330.281154,23150.397177659037
329.8778065,21102.924807152445
329.47617460000004,19146.03125434437
329.07624649999997,17350.906985453792
328.6780106,15688.09623921173
328.2814555,14194.355522217309
327.88656960000003,12863.836403372712
327.4933418,11702.100434880706
327.1017607,10698.80108828125
326.7118154,9845.607196278985
326.32349480000005,9124.484544936924
325.93678789999996,8505.210812799449
325.5516841,7977.110986450889
325.16817260000005,7534.795354614123
324.7862428,7139.15623398132
324.40588419999995,6793.225282764351
324.0270864,6487.656786461413
323.649839,6208.3440277502195
323.2741319,5947.840605024678
322.8999548,5707.625989590041
322.5272977,5479.867257535367
322.1561508,5257.556501090438
321.786504,5047.178775953657
321.4183476,4852.647764705783
321.0516719,4649.3222104358665
320.6864673,4459.913115880664
320.3227243,4275.891009053748
319.96043330000003,4093.712355809961
319.5995851,3921.734827484403
319.2401704,3749.786912891845
318.8821799,3596.371587591019
318.5256045,3433.138014398323
318.1704352,3278.801638853181
317.8166631,3129.079451450661
317.4642791,2997.818559546922
317.1132746,2858.04553936211
316.76364069999994,2732.5860580026274
316.4153688,2603.317692097689
316.06845039999996,2482.540399314576
315.72287689999996,2365.8810451225795
315.37863980000003,2259.9789672876946
315.0357308,2144.871516679375
314.6941415,2047.942522833024
314.3538639,1942.1595904086414
314.0148896,1850.3840941464855
313.6772106,1756.0386209721357
313.3408189,1667.9082761210773
313.00570639999995,1586.3055816043802
312.67186549999997,1496.7164269980005
312.33928810000003,1417.361486789763
312.0079665,1342.466063112957
311.6778931,1274.0619420463745
311.34906010000003,1210.1913804269468
311.0214601,1149.7987655411155
310.6950856,1092.7744451687843
310.369929,1034.6238374166842
310.04598300000004,975.4254173687624
309.7232403,917.6174638589798
309.4016935,864.6324063585241
309.0813356,813.3813100050513
308.7621594,767.6930225611154
308.4441577,720.8229752359558
308.1273236,675.7473809989456
307.8116501,635.6675188344267
307.49713019999996,523.696865670565
307.18375710000004,416.1746490682135
306.871524,325.93472724570995
306.5604242,236.4309369001406
306.2504509,167.62660143187057
