wave,flux
1817.164934,1.1897131404564276
1790.1022050000001,4.539470818842076
1763.812741,1.5675685441355824
1738.2646949999998,9.736265006046727
1713.427949,26.560887521819428
1689.273995,272.07041182453133
1665.7758310000002,944.9398774978737
1642.907862,2071.820640784125
1620.64581,3641.4176247006667
1598.9666300000001,5664.752027191253
1577.8484310000001,8160.960286547488
1557.270407,11134.835553357956
1537.212767,14578.038493466003
1517.65668,18136.79253546772
1498.5842089999999,21525.398821857245
1479.978265,24687.099133598676
1461.822555,27587.63407102449
1444.101535,30220.42597092367
1426.800368,32598.00114332979
1409.904887,34713.885840932344
1393.401553,36622.230798607816
1377.2774220000001,38391.716764420824
1361.520115,40190.40665480081
1346.117782,41911.586901546994
1331.059081,43732.85731184688
1316.3331449999998,45537.743640670466
1301.92956,47385.723515754435
1287.838342,49286.35238407062
1274.049912,51214.94312444409
1260.5550779999999,53074.934736275936
1247.345017,55046.35724211764
1234.4112519999999,57067.345341966786
1221.74564,59154.82456061728
1209.340352,61364.10098258581
1197.187859,63521.037813268835
1185.28092,65806.05824697117
1173.612564,68019.96398061134
1162.1760800000002,70239.56201041836
1150.9650060000001,72556.05329130113
1139.973115,74866.46282909728
1129.194406,77142.23582339755
1118.623093,79402.29707960192
1108.253594,81689.82765421826
1098.0805269999998,83944.93380778359
1088.098695,86319.40969105418
1078.303081,88653.99132399002
1068.688841,91075.40893202793
1059.251295,93702.41650409377
1049.9859199999999,96605.35609584414
1040.8883449999998,99985.64635952671
1031.9543429999999,103825.7742270129
1023.1798259999999,108126.6076752434
1014.5608390000001,113236.27245304485
1006.0935529999999,118846.4482341081
997.774265,125046.90806119324
989.5993858999999,131744.5293360412
981.5654412999999,138816.2246274707
973.6690651,145830.68159956267
965.9069952,153027.92231464738
958.2760697000001,159863.49994336563
950.7732231000001,166550.33813809222
943.3954827,172648.62273863587
936.1399648,178361.34273665946
929.0038716,183849.3685670921
921.9844879000001,188747.0646642102
915.0791782,193345.08886084406
908.2853836000002,197701.04553908206
901.6006193,202338.435301708
895.0224714,206951.70492491548
888.548595,212367.9851379228
882.1767113,218501.97360926625
875.9046055,225650.9921479341
869.7301242999998,234055.06748816546
863.6511742999999,244605.26624911212
857.6657193,256912.82481593054
851.7717787,271008.3128628978
845.9674256000001,289145.73942492285
840.2507849,309923.15564054303
834.6200316000001,335419.91912400647
829.0733892000001,364516.6637874896
823.6091279,397918.9714136297
818.2255633999999,435407.8244366021
812.9210552000001,477064.8420267241
807.694005,521306.7332126718
802.5428559,567266.4837468573
797.4660904,613348.1963423184
792.4622299,659040.3457413607
787.5298327,706919.5480228298
782.6674933999999,759479.5343738603
777.8738417999999,818817.3230641725
773.1475413,890883.9438257002
768.4872882999999,978615.95983613
763.8918112000001,1091130.2298862643
759.3598692,1229778.241804372
754.8902515999999,1397199.751318733
750.4817767999999,1593665.784221129
746.1332914,1817573.9659996445
741.8436694000001,2059235.54041616
737.6118116,2312462.4550000853
733.4366444,2563349.9286438813
729.3171195,2807636.9634378213
725.2522127999999,3039446.713251171
721.2409241,3261059.962057725
717.282276,3484730.9832792534
713.3753136,3711361.7211502087
709.5191037000001,3941931.7443306604
705.7127343,4178148.172095112
701.9553139,4430046.276073358
698.2459709,4690593.986420743
694.5838534,4959223.343305721
690.9681281000001,5220309.5304034315
687.3979803,5444272.303315609
683.8726131,5628488.664778343
680.3912472999999,5779800.673120096
676.9531202000001,5890586.931600281
673.557486,5971285.7417746065
670.2036149,6019736.430008062
666.8907926,6038363.824017251
663.6183202999999,6040841.167496183
660.3855139,6040976.14028029
657.1917038,6043635.79184452
654.0362346,6043023.235031231
650.9184646000001,6039177.430875673
647.8377654,6041452.973594718
644.7935217999999,6042130.718457424
641.7851312999999,6041540.189595115
638.8120038,6039901.837343773
635.8735614,6041099.422334958
632.9692378999999,6041550.979603653
630.0984786,6041898.137915768
627.2607402000001,6042079.206819115
624.4554901,6043655.212930475
621.6822068,6042429.73172356
618.940379,6042481.112865299
616.2295054,6041508.587930669
613.549095,6041318.122565612
610.8986664,6041365.194882148
608.2777476,6041519.615688614
605.6858758999999,6041000.89268042
603.1225977000001,6041676.181717391
600.5874682,6041406.147752482
598.0800512,6041365.738220908
595.5999188999999,6041619.933440737
593.1466518,6041517.33734219
590.7198384999999,6041963.852904107
588.3190752,6041315.092091927
585.943966,6041606.793977845
583.5941226,6041497.715479272
581.2691637,6041420.939068782
578.9687155,6041396.498070054
576.692411,6041554.471138885
574.4398902,6041314.126820003
572.2107997,6041721.838749127
570.0047927,6041616.8174918275
567.8215287,6041322.013550338
565.6606737000001,6041037.626317923
563.5218996,6041705.790400006
561.4048845,6041672.231684447
559.3093121,6041441.071299152
557.2348721,6041569.076987202
555.1812597,6041467.125857213
553.1481756000001,6040887.137274671
551.1353259,6041337.46101616
549.1424218999999,6041712.91610575
547.1691801,6041479.674732335
545.2153222000001,6041952.72549423
543.2805745000001,6041377.073324428
541.3646685,6041566.252329616
539.46734,6041148.088273163
537.5883299,6041343.710558852
535.7273833,6041573.576777314
533.8842498,6041202.654871339
532.0586836,6041439.848519232
530.2504428000001,6041575.10176581
528.45929,6041702.019842727
526.6849915,6041536.772362528
524.927318,6041186.51766887
523.186044,6041492.5654611485
521.4609475999999,6041348.09766644
519.7518110000001,6041299.163430288
518.0584200000001,6041125.691529756
516.3805639,6041651.210207996
514.7180356,6041464.870982513
513.0706316000001,6041429.844964809
511.43815149999995,6041077.35230323
509.82039860000003,6041481.214363888
508.2171791999999,6041046.50846034
506.628303,6041482.356686072
505.05358269999994,6041483.644467807
503.4928341,6041649.972967054
501.9458762,6041382.2220676085
500.41253059999997,6041218.690276665
498.8926222,6041445.484328877
497.3859785,6041749.969439762
495.89242989999997,6041722.729836125
494.4118094,6041572.094664837
492.943953,6041334.336851813
491.488699,6041322.112504605
490.04588839999997,6041532.251198012
488.6153648,6041441.397477436
487.19697429999997,6041685.561680838
485.7905654,6041124.113505377
484.39598889999996,6041584.478662337
483.01309800000007,6041148.660843507
481.64174840000004,6041575.5845800685
480.28179789999996,6041000.942932496
478.93310639999993,6041555.440750781
477.59553619999997,6041697.6805750625
476.2689517,6041069.2540298235
474.9532192,6041580.288480973
473.6482074,6041404.791494051
472.35378679999997,6041760.557535033
471.06982989999995,6041501.2533113435
469.79621110000005,6041014.87387433
468.53280700000005,6041418.029983689
467.2794956999999,6041503.244637456
466.0361575,6041756.715049424
464.80267410000005,6041443.340563086
463.5789295,6041531.012533102
462.364809,6041274.284521008
461.1601998,6041290.673587453
459.9649909,6041174.596668031
458.7790727,6041525.270933694
457.6023374,6041391.088591073
456.4346788,6041496.955786328
455.2759921,6041476.902420615
454.12617439999997,6041890.205384351
452.9851239,6041496.948574359
451.85274060000006,6040936.779241322
450.7289258,6041506.862994817
449.6135822,6041507.550303767
448.5066141,6041274.61234844
447.407927,6041382.695953636
446.317428,6041487.731209997
445.23502520000005,6041511.869911078
444.1606283,6041495.651440941
443.0941482,6041106.7026329
442.03549699999996,6041612.477871634
440.9845882,6041698.668977891
439.9413364,6041541.29217264
438.9056575,6041212.490550002
437.87746860000004,6041597.463238292
436.85668780000003,6041629.734269111
435.8432345,6041746.990382598
434.83702930000004,6041625.320850448
433.83799369999997,6041374.415359541
432.84605039999997,6041369.826048552
431.8611232,6041302.04554382
430.8831369,6041278.789315168
429.9120175,6041743.452011451
428.94769169999995,6041679.170629469
427.9900874,6041730.145193093
427.03913370000004,6041647.255296799
426.0947602,6041171.297352135
425.1568978,6041571.984714641
424.22547829999996,6041890.253956527
423.3004343,6041572.56785395
422.3816994,6041521.598462766
421.4692081,6041037.90451775
420.56289569999996,6041518.389355278
419.66269850000003,6041359.626034843
418.7685535,6041584.597537632
417.8803987,6041246.694709384
416.9981727,6041713.374334248
416.12181519999996,6041405.177912258
415.25126639999996,6040825.602030517
414.38646760000006,6041105.047820858
413.5273605,6041274.975105712
412.673888,6039723.817903862
411.8259934,6031467.186129797
410.9836208,6012510.555130418
410.14671519999996,5977214.363700686
409.3152221,5920757.487700975
408.48908789999996,5839248.755666473
407.66825960000006,5727837.679137066
406.8526847,5583830.397258824
406.0423117,5406986.2173025515
405.2370896,5203202.463008566
404.43696800000004,4980394.222163117
403.64189730000004,4745624.503020383
402.8518283,4505378.47879723
402.0667126,4267349.076566052
401.28650239999996,4036310.316737295
400.5111505,3817229.0809493084
399.7406101,3612143.931115614
398.9748353,3418942.5742318775
398.2137806,3235539.10979948
397.457401,3059648.349295888
396.7056521,2888582.611130001
395.9584903,2721339.1994403433
395.2158722,2556894.473780528
394.4777551,2395834.2764418083
393.7440968,2240835.864064369
393.0148555,2093154.0087014188
392.2899901,1954065.081800897
391.56946,1826667.0075251372
390.853225,1710756.5427158
390.1412452,1608048.3931533613
389.43348169999996,1517012.7595527892
388.7298955,1437454.7654813838
388.03044839999995,1367308.6663101532
387.3351027,1303840.9812117105
386.6438209,1245695.9645514074
385.95656610000003,1190902.7830900294
385.2733019,1136882.582209051
384.5939922,1082751.0009788629
383.9186014,1027838.8599368044
383.2470943,971183.7495743231
382.5794362,913363.7729928977
381.9155926,854691.7702070894
381.2555296,795650.3227894022
380.59921360000004,737343.4126081005
379.9466115,680504.4405880645
379.29769039999996,625894.0593256861
378.652418,574304.080926713
378.0107622,526424.4665151289
377.37269130000004,482350.68727390846
376.73817410000004,442455.468587597
376.1071796,406526.2738261192
375.47967719999997,374510.9803586538
374.8556368,346021.0910145308
374.2350283,320880.71540411544
373.6178223,298709.7639104052
373.0039896,279050.9984255769
372.3935012,261609.70450911162
371.78632860000005,245975.8950911819
371.1824436,231922.5402914693
370.5818182,219166.0114756269
369.98442489999996,207551.69030194602
369.39023629999997,197000.23671013254
368.7992255,187174.29973944195
368.2113658,178063.67382364208
367.6266307,169615.78715945402
367.0449943,161657.85417451034
366.4664305,154216.74488492313
365.89091410000003,147160.03354134483
365.3184196,140436.90546209607
364.7489221,134046.3714323313
364.18239689999996,127906.43126816994
363.61881960000005,122091.59369462905
363.058166,116529.04954175054
362.50041219999997,111316.3873025251
361.94553460000003,106298.61183650856
361.3935098,101429.16760758267
360.8443147,96714.42103854279
360.29792630000003,92189.49872601326
359.754322,87824.99846302989
359.2134795,83605.03049923273
358.6753765,79474.55871628923
358.1399912,75441.20451082973
357.6073018,71577.31821608053
357.077287,67913.82111174389
356.5499253,64411.63651617161
356.025196,61041.20201836227
355.50307799999996,57796.29349415722
354.983551,54633.025427642715
354.4665945,51585.398136795935
353.95218839999995,48652.638494521416
353.4403127,45796.89553098094
352.9309478,43001.35735903145
352.42407410000004,40316.92067591144
351.9196722,37779.059132320166
351.4177232,35386.1507164776
350.91820789999997,33149.789688981735
350.4211078,31092.997159145507
349.9264043,29134.84488472501
349.434079,27303.999829183653
348.9441137,25569.65371430703
348.45649060000005,23886.27520058329
347.97119169999996,22258.922991046813
347.48819960000003,20664.58275823452
347.0074967,19117.682669428585
346.5290657,17603.747215939584
346.0528897,16183.309915155214
345.5789517,14842.345185073866
345.1072349,13615.088513890025
344.6377228,12519.612623481444
344.17039889999995,11534.10619800137
343.70524710000007,10650.801975953214
343.24225110000003,9851.11329298389
342.7813952,9150.136378085379
342.32266339999995,8499.222898344651
341.8660403,7881.986632914826
341.4115102,7278.639121833097
340.959058,6683.253906952351
340.5086685,6106.786506789917
340.06032660000005,5545.726306721556
339.6140175,5017.7304442602035
339.1697264,4528.5473255225315
338.7274388,4079.944734528725
338.28714019999995,3675.661212523244
337.8488164,3344.861585052926
337.41245310000005,3048.314301287529
336.9780363,2799.152004758451
336.5455522,2597.6953355116902
336.114987,2413.7116861476
335.686327,2240.6593260543727
335.2595588,2066.623542305437
334.834669,1898.5561322194808
334.4116443,1722.7330416602122
333.9904716,1545.6294855066008
333.57113799999996,1363.3098938275575
333.1536305,1184.8455796270835
332.73793639999997,1002.126420440581
332.32404310000004,837.657349383791
331.91193799999996,683.2286768635879
331.5016088,556.8132246971102
331.0930432,434.3314182414847
330.6862289,335.73007429907364
330.281154,255.59418348837787
329.8778065,188.8654779983544
329.47617460000004,138.4697087422213
329.07624649999997,95.87159915090828
328.6780106,62.9029495501851
328.2814555,44.05673236475405
327.88656960000003,22.57683958854454
327.4933418,15.54509577503344
327.1017607,8.338371440926856
326.7118154,1.6558625874698325
326.32349480000005,-0.3628384107535249
325.93678789999996,-0.902316659678532
325.5516841,-0.24888388853389826
325.16817260000005,0.8965186972072706
324.7862428,3.5041032230819034
324.40588419999995,-2.2222322447780285
324.0270864,1.9298536326954243
323.649839,-2.407937548255738
323.2741319,1.906242081215504
322.8999548,4.533481247502012
322.5272977,0.7380301187398832
322.1561508,3.1555610458077425
321.786504,2.2870990726783385
321.4183476,1.0586719632221329
321.0516719,0.2575821152881376
320.6864673,6.9620719691863835
320.3227243,2.4789852131663297
319.96043330000003,-5.118196412713045
319.5995851,0.21154294759521794
319.2401704,1.7644321150671956
318.8821799,-0.4077671370511636
318.5256045,-3.4014634604927894
318.1704352,1.5329473018000563
317.8166631,-1.3630674479438172
317.4642791,-2.026959512908926
317.1132746,3.9788625863464464
316.76364069999994,-3.5423727279520945
316.4153688,4.927574375062854
316.06845039999996,-1.027673597529053
315.72287689999996,-1.6182276701448877
315.37863980000003,-0.09182058408852302
315.0357308,0.2773289186504562
314.6941415,1.1446000637503102
314.3538639,-2.0329175844699443
314.0148896,0.08521751268772226
313.6772106,0.2712467523566797
313.3408189,0.8760480881484126
313.00570639999995,-5.999278186961951
312.67186549999997,-1.071382097344864
312.33928810000003,-1.2051210675307218
312.0079665,-0.6565795646561213
311.6778931,1.1866466023951834
311.34906010000003,-2.702266423536088
311.0214601,-1.886444226304315
310.6950856,2.604137589523956
310.369929,1.3397498822447846
310.04598300000004,-1.562194063909569
309.7232403,1.6754863214964275
309.4016935,0.5945780555442076
309.0813356,1.4526765155659764
308.7621594,-0.20949365659872607
308.4441577,-4.6934104098439695
308.1273236,1.6951582065424955
307.8116501,0.04454766754154586
307.49713019999996,-1.9683378109475669
307.18375710000004,-0.9713126444983388
306.871524,-3.5445582015397967
306.5604242,2.8532146220065986
306.2504509,-2.468998892494956
