wave,flux
1817.164934,12.428773675495654
1790.1022050000001,11.73949533188283
1763.812741,16.616663273179096
1738.2646949999998,14.830452799180765
1713.427949,80.44269196156654
1689.273995,464.91807819092753
1665.7758310000002,1242.0026372594198
1642.907862,2487.641330034529
1620.64581,4281.02193590677
1598.9666300000001,6683.491052102245
1577.8484310000001,9729.868038908578
1557.270407,13491.453374255334
1537.212767,18014.011121888856
1517.65668,22781.1597244064
1498.5842089999999,27784.237304357368
1479.978265,33018.31490049932
1461.822555,38347.89763448714
1444.101535,43778.93083008105
1426.800368,49073.723328123946
1409.904887,54286.71801370769
1393.401553,59150.623266349256
1377.2774220000001,63933.75787133597
1361.520115,68461.08973972157
1346.117782,72663.57223722505
1331.059081,76495.72603387963
1316.3331449999998,79993.53150170416
1301.92956,83117.13106857508
1287.838342,86089.84656774178
1274.049912,88814.80116072939
1260.5550779999999,91473.61096893378
1247.345017,93992.19644065773
1234.4112519999999,96621.6661545218
1221.74564,99397.68287446671
1209.340352,102310.75614742069
1197.187859,105792.2548420363
1185.28092,109539.06458169383
1173.612564,113778.33723775133
1162.1760800000002,118468.60354290095
1150.9650060000001,123299.27520029053
1139.973115,128585.54143084995
1129.194406,133910.52799696894
1118.623093,139336.67141754014
1108.253594,144666.14401364198
1098.0805269999998,149673.50178597792
1088.098695,154766.20859981858
1078.303081,159785.64496460467
1068.688841,164888.88338129775
1059.251295,170351.40785198667
1049.9859199999999,175792.04280636794
1040.8883449999998,181667.42054272923
1031.9543429999999,188027.19140029815
1023.1798259999999,194971.1260219297
1014.5608390000001,202504.5173782986
1006.0935529999999,210630.73426843304
997.774265,219170.99322427608
989.5993858999999,228339.76940975952
981.5654412999999,237869.51457177015
973.6690651,248233.84025953343
965.9069952,258498.37217435712
958.2760697000001,269042.57132368267
950.7732231000001,279506.64936376485
943.3954827,290155.0067909891
936.1399648,300454.8841339073
929.0038716,310457.19648587826
921.9844879000001,320053.89907661744
915.0791782,329385.3929657013
908.2853836000002,338395.56368769944
901.6006193,347189.25189516816
895.0224714,355729.1254508911
888.548595,364539.4680274576
882.1767113,373657.63692506216
875.9046055,384152.83151372854
869.7301242999998,394945.05344050133
863.6511742999999,407440.0415284933
857.6657193,421970.63403270923
851.7717787,438569.14147598547
845.9674256000001,458183.1431077413
840.2507849,481237.6480151293
834.6200316000001,509094.82890917064
829.0733892000001,541349.3355573964
823.6091279,580350.64459265
818.2255633999999,624958.7294597664
812.9210552000001,676419.0527436482
807.694005,731915.094520333
802.5428559,793043.1379554836
797.4660904,858989.080285215
792.4622299,929368.414851884
787.5298327,1004843.6149838379
782.6674933999999,1088421.626188424
777.8738417999999,1180984.216555041
773.1475413,1289753.2905014965
768.4872882999999,1417257.835229361
763.8918112000001,1573861.588964152
759.3598692,1765428.6632147476
754.8902515999999,1989205.4947354163
750.4817767999999,2255295.0732632573
746.1332914,2560311.0526974704
741.8436694000001,2895718.729550205
737.6118116,3262382.250491467
733.4366444,3642757.042827471
729.3171195,4022679.181661485
725.2522127999999,4397304.510681349
721.2409241,4744307.727645033
717.282276,5055967.050485781
713.3753136,5318590.322062259
709.5191037000001,5545264.462222162
705.7127343,5717622.106287853
701.9553139,5840821.276659171
698.2459709,5924695.711318701
694.5838534,5986176.91416334
690.9681281000001,6016739.108091182
687.3979803,6031744.606450992
683.8726131,6040072.21633302
680.3912472999999,6041597.00694858
676.9531202000001,6041347.592365559
673.557486,6040138.393342059
670.2036149,6041055.347816596
666.8907926,6041809.7862743735
663.6183202999999,6042258.065128908
660.3855139,6041072.529773872
657.1917038,6042887.753077405
654.0362346,6040759.863705971
650.9184646000001,6041305.851094487
647.8377654,6042757.058193257
644.7935217999999,6041627.533590525
641.7851312999999,6042544.807667903
638.8120038,6041387.3749859575
635.8735614,6042047.338991103
632.9692378999999,6041264.0624427125
630.0984786,6041099.813117802
627.2607402000001,6042372.320567927
624.4554901,6040960.590480594
621.6822068,6041881.446106449
618.940379,6041952.983467335
616.2295054,6041268.73123758
613.549095,6041244.75321919
610.8986664,6041551.63908581
608.2777476,6041059.600563309
605.6858758999999,6041274.007782058
603.1225977000001,6041019.432483057
600.5874682,6041588.095460509
598.0800512,6041677.229766533
595.5999188999999,6041434.451890768
593.1466518,6041341.590432357
590.7198384999999,6041110.217675611
588.3190752,6041539.015702478
585.943966,6040918.512082272
583.5941226,6041386.536667339
581.2691637,6041731.358077398
578.9687155,6041876.8243191885
576.692411,6041754.964576945
574.4398902,6041498.292910286
572.2107997,6040868.416682297
570.0047927,6041588.087045587
567.8215287,6041281.483820328
565.6606737000001,6041597.000770782
563.5218996,6041333.848782698
561.4048845,6041325.435106303
559.3093121,6041441.277124594
557.2348721,6041520.858374937
555.1812597,6041179.360589192
553.1481756000001,6041805.323208355
551.1353259,6041277.870047709
549.1424218999999,6041501.664314661
547.1691801,6041662.973723569
545.2153222000001,6041637.443727016
543.2805745000001,6041341.252982829
541.3646685,6041191.90998526
539.46734,6041269.9002782535
537.5883299,6041200.742548445
535.7273833,6041401.174837423
533.8842498,6041547.1010994185
532.0586836,6041645.66008058
530.2504428000001,6041340.595081054
528.45929,6041684.544607513
526.6849915,6041095.266257709
524.927318,6041389.720687265
523.186044,6041832.0953870965
521.4609475999999,6041864.536458411
519.7518110000001,6041372.743543288
518.0584200000001,6041420.957266925
516.3805639,6041443.96970712
514.7180356,6041515.859237717
513.0706316000001,6041976.519555324
511.43815149999995,6041248.122937857
509.82039860000003,6041217.2850239035
508.2171791999999,6041675.530596647
506.628303,6041148.6018133685
505.05358269999994,6040865.57928196
503.4928341,6040920.623259878
501.9458762,6041159.964125066
500.41253059999997,6041283.889700421
498.8926222,6041326.900661269
497.3859785,6040934.432635662
495.89242989999997,6040761.527042659
494.4118094,6041483.118607599
492.943953,6041173.602290394
491.488699,6041880.411406015
490.04588839999997,6041370.774250897
488.6153648,6041330.806192042
487.19697429999997,6041690.91379629
485.7905654,6041612.42555915
484.39598889999996,6041563.124447228
483.01309800000007,6041258.88245883
481.64174840000004,6041796.121958586
480.28179789999996,6041473.662513874
478.93310639999993,6041659.408472324
477.59553619999997,6041386.826326969
476.2689517,6041582.549403078
474.9532192,6041348.89428601
473.6482074,6041667.71460984
472.35378679999997,6041185.774608295
471.06982989999995,6041263.237270788
469.79621110000005,6041707.1161454925
468.53280700000005,6041670.4302697135
467.2794956999999,6041564.64274744
466.0361575,6041649.56558771
464.80267410000005,6041671.848745144
463.5789295,6041579.17603462
462.364809,6041750.197609668
461.1601998,6041567.8205585675
459.9649909,6041006.780365474
458.7790727,6041112.1640729
457.6023374,6041891.20082283
456.4346788,6041693.692659277
455.2759921,6041442.073482523
454.12617439999997,6041567.912881146
452.9851239,6041338.727670713
451.85274060000006,6041291.827102543
450.7289258,6041654.405983637
449.6135822,6039485.981879292
448.5066141,6032306.881255156
447.407927,6016850.613245275
446.317428,5990783.87091622
445.23502520000005,5953303.781570699
444.1606283,5902049.210984317
443.0941482,5835894.749336304
442.03549699999996,5752207.651914772
440.9845882,5651702.222746982
439.9413364,5537469.987247187
438.9056575,5410213.767810747
437.87746860000004,5267615.678001178
436.85668780000003,5105940.660761717
435.8432345,4923311.560094481
434.83702930000004,4715917.245659738
433.83799369999997,4482849.07052606
432.84605039999997,4224096.987556699
431.8611232,3938434.3048446137
430.8831369,3630558.5927613927
429.9120175,3308306.6308121327
428.94769169999995,2978129.9043631093
427.9900874,2651714.695857373
427.03913370000004,2338126.5939780786
426.0947602,2044133.491785024
425.1568978,1777154.3839108394
424.22547829999996,1541116.345425325
423.3004343,1337742.5178096092
422.3816994,1166688.1570792012
421.4692081,1026153.0229434624
420.56289569999996,911985.8998342024
419.66269850000003,821509.5351086932
418.7685535,750164.8118967436
417.8803987,693907.1128333941
416.9981727,649529.4198800611
416.12181519999996,613440.7231558338
415.25126639999996,583341.5029619074
414.38646760000006,557256.120226118
413.5273605,534116.7850970555
412.673888,512766.35742230405
411.8259934,492718.17718081456
410.9836208,473897.9813782812
410.14671519999996,456039.9394494461
409.3152221,439374.17582153133
408.48908789999996,423833.8339539967
407.66825960000006,409354.5450086381
406.8526847,395977.69984704687
406.0423117,383300.4751831743
405.2370896,371238.06937762327
404.43696800000004,359629.9065097368
403.64189730000004,348433.29172952013
402.8518283,337475.27108602674
402.0667126,326752.57907528034
401.28650239999996,316332.97287961346
400.5111505,306232.72659012995
399.7406101,295842.07178758184
398.9748353,285292.23027924524
398.2137806,274525.4490545992
397.457401,263387.5437293094
396.7056521,251673.29540983145
395.9584903,239402.8613849941
395.2158722,226429.6663469116
394.4777551,212746.3815040479
393.7440968,199594.2390192396
393.0148555,186941.31923453906
392.2899901,174925.04943739044
391.56946,163869.8673494391
390.853225,153879.41612369794
390.1412452,144996.69724202118
389.43348169999996,137251.13499450946
388.7298955,130584.53121407072
388.03044839999995,124425.79559883293
387.3351027,118704.71249652788
386.6438209,113357.98504216806
385.95656610000003,108214.78423784039
385.2733019,103173.84244431193
384.5939922,98258.32068319242
383.9186014,93443.70383460258
383.2470943,88801.69192378002
382.5794362,84258.44871444169
381.9155926,79764.38649937425
381.2555296,75420.69921685854
380.59921360000004,71156.07858002702
379.9466115,67022.95606618033
379.29769039999996,62886.84703603491
378.652418,58871.17026419957
378.0107622,54891.018071590224
377.37269130000004,51176.6993442524
376.73817410000004,47655.73000825491
376.1071796,44333.983815908694
375.47967719999997,41188.91929342783
374.8556368,38291.70231451434
374.2350283,35634.386964040365
373.6178223,33212.921388612296
373.0039896,31021.966593123536
372.3935012,28943.277024088373
371.78632860000005,26984.596013378174
371.1824436,25114.230631630166
370.5818182,23357.72218727408
369.98442489999996,21689.23059851817
369.39023629999997,20074.894013375902
368.7992255,18522.797424560536
368.2113658,17049.47531528684
367.6266307,15650.005241099761
367.0449943,14335.63700150361
366.4664305,13139.446687887195
365.89091410000003,12005.20850386954
365.3184196,10958.341526867303
364.7489221,9985.37432391474
364.18239689999996,9048.31436925237
363.61881960000005,8134.888463726565
363.058166,7206.809523950517
362.50041219999997,6287.784695303424
361.94553460000003,5378.386480669247
361.3935098,4494.4456076565275
360.8443147,3638.515805909575
360.29792630000003,2821.9805478966805
359.754322,2092.810806499014
359.2134795,1479.8008753505785
358.6753765,997.2457580460788
358.1399912,629.1238986361204
357.6073018,354.87907548097564
357.077287,173.99705139861217
356.5499253,69.50243668961215
356.025196,12.723844641608586
355.50307799999996,1.3085656433314587
354.983551,-0.3329279629945572
354.4665945,3.5895413785598893
353.95218839999995,-3.6140079972741836
353.4403127,-0.45048658099158
352.9309478,-2.382305066856444
352.42407410000004,-0.2339275468282849
351.9196722,-0.4804430983011458
351.4177232,-2.376990152004929
350.91820789999997,0.3232888692245757
350.4211078,-0.9854668096201854
349.9264043,1.4372372273160372
349.434079,0.3525870662593732
348.9441137,5.6279674796688015
348.45649060000005,-1.7930475889550486
347.97119169999996,-2.201229069767313
347.48819960000003,-2.5742987912427013
347.0074967,1.8750113188467032
346.5290657,0.12658886713562925
346.0528897,-4.453631611394902
345.5789517,1.6850081718230798
345.1072349,-6.246776381616964
344.6377228,-0.4058471591173812
344.17039889999995,-0.8064550826863394
343.70524710000007,1.0617157979914895
343.24225110000003,0.918231423463649
342.7813952,0.12038813031637866
342.32266339999995,1.2864926685462703
341.8660403,3.6056542050642895
341.4115102,0.7373109031296717
340.959058,1.0692909009475802
340.5086685,-0.07089459935355648
340.06032660000005,-1.5778069158353645
339.6140175,-0.6852032869543778
339.1697264,4.545430801523217
338.7274388,1.130126431190408
338.28714019999995,0.3858715175411765
337.8488164,0.08303381997560898
337.41245310000005,0.7821771794327301
336.9780363,-2.0251815539967892
336.5455522,-0.19294546036480986
336.114987,-2.3818134155499995
335.686327,1.2316427274152355
335.2595588,2.781122535446679
334.834669,2.4237169142090838
334.4116443,-2.1507358913540284
333.9904716,-2.406832981150034
333.57113799999996,-3.787416201610339
333.1536305,-3.3198846840215435
332.73793639999997,2.078409731696285
332.32404310000004,1.1824299963182865
331.91193799999996,3.2825095392876538
331.5016088,-2.101215512098124
331.0930432,1.4992464627920141
330.6862289,4.176848849035327
330.281154,2.7880293880985727
329.8778065,4.362009741195596
329.47617460000004,-2.466387909838252
329.07624649999997,-0.665504246277228
328.6780106,-0.13409116928864293
328.2814555,-0.4221465221981737
327.88656960000003,0.3618547950097375
327.4933418,-0.16281478031093405
327.1017607,-2.0158466504348413
326.7118154,0.67325133008885
326.32349480000005,2.588148049378133
325.93678789999996,-4.775431779639386
325.5516841,1.081201672521837
325.16817260000005,2.5272520852671243
324.7862428,-0.7480283192613983
324.40588419999995,4.7525707021652455
324.0270864,3.570589988736426
323.649839,0.2043672841307472
323.2741319,-0.8893515618176779
322.8999548,-2.782813798701698
322.5272977,3.561533489237567
322.1561508,-1.9474139644566872
321.786504,-0.23306730412729604
321.4183476,-1.6092902248033782
321.0516719,1.1772837151324218
320.6864673,1.856070307463625
320.3227243,-0.4428928835146117
319.96043330000003,2.188506984188673
319.5995851,-1.978808340583192
319.2401704,0.5601403498696275
318.8821799,5.880469453686406
318.5256045,1.1346308520625237
318.1704352,-0.4422915420558745
317.8166631,3.173133720282544
317.4642791,3.240713640844747
317.1132746,0.546008544666183
316.76364069999994,0.1724827175993065
316.4153688,3.789496924229084
316.06845039999996,-1.4286948494875942
315.72287689999996,1.890994834648828
315.37863980000003,-2.1298341253988453
315.0357308,-3.0837138285972565
314.6941415,1.8935250378068855
314.3538639,3.3140886819153534
314.0148896,-0.1911327037854454
313.6772106,0.12300617427001152
313.3408189,-0.06362887509701595
313.00570639999995,-0.6389312440396804
312.67186549999997,-1.885735335988577
312.33928810000003,-6.372334075055096
312.0079665,2.279584944245721
311.6778931,-2.209896764245109
311.34906010000003,-1.788784222358021
311.0214601,-0.4724780068167979
310.6950856,2.787361315398853
310.369929,-0.048260522633717315
310.04598300000004,2.005572411928521
309.7232403,3.052535899147073
309.4016935,-4.7204370355186445
309.0813356,0.5034920059114507
308.7621594,-2.7142435827508384
308.4441577,3.2396971642589385
308.1273236,-1.4578410854884383
307.8116501,0.14760352201501564
307.49713019999996,-2.1342272316391964
307.18375710000004,3.9897737355540506
306.871524,-0.9111588018449696
306.5604242,3.0399340747905885
306.2504509,3.2752467927772884
