wave,flux
1817.164934,-4.106137817861153
1790.1022050000001,2.9882915985077783
1763.812741,1.0694313499437669
1738.2646949999998,20.4206042505085
1713.427949,67.35877086056408
1689.273995,298.21166064367105
1665.7758310000002,734.7978310862976
1642.907862,1462.031421716816
1620.64581,2446.391938072103
1598.9666300000001,3790.897748665152
1577.8484310000001,5460.804468980477
1557.270407,7563.762403550125
1537.212767,10034.713847984123
1517.65668,12686.643982527117
1498.5842089999999,15421.871042702483
1479.978265,18230.689729108453
1461.822555,21100.167330992685
1444.101535,23986.053425369933
1426.800368,26853.470520794388
1409.904887,29637.899727756627
1393.401553,32379.044503655172
1377.2774220000001,35075.54831986746
1361.520115,37754.526730686404
1346.117782,40416.19479717392
1331.059081,43067.76339532662
1316.3331449999998,45727.005204474764
1301.92956,48338.28142343278
1287.838342,50932.399883797414
1274.049912,53518.434949875635
1260.5550779999999,56085.93538041591
1247.345017,58627.59145869572
1234.4112519999999,61120.23051486345
1221.74564,63544.702001820704
1209.340352,66074.21606174955
1197.187859,68476.76449394134
1185.28092,70989.69302747995
1173.612564,73307.5911255906
1162.1760800000002,75717.50086358351
1150.9650060000001,78019.44619635405
1139.973115,80269.44899276082
1129.194406,82389.23226902616
1118.623093,84583.90701301223
1108.253594,86541.29475611496
1098.0805269999998,88580.58164515521
1088.098695,90556.58020090873
1078.303081,92602.670429544
1068.688841,94685.36234805887
1059.251295,97186.37024341463
1049.9859199999999,99741.00194511854
1040.8883449999998,102663.90460419463
1031.9543429999999,105939.30399646806
1023.1798259999999,109824.6774381458
1014.5608390000001,114083.10853476988
1006.0935529999999,118936.45615872926
997.774265,124387.1978087234
989.5993858999999,130160.72160603195
981.5654412999999,136289.8236799355
973.6690651,142940.26238761752
965.9069952,149736.87813277
958.2760697000001,156663.83633627524
950.7732231000001,163515.6142248523
943.3954827,170583.436710065
936.1399648,177363.11711302339
929.0038716,184193.37793171406
921.9844879000001,190610.6469326052
915.0791782,197337.56187572482
908.2853836000002,203652.42078736672
901.6006193,209997.2983362481
895.0224714,216541.06857381135
888.548595,223333.20284349046
882.1767113,230478.33327932394
875.9046055,238129.0835742196
869.7301242999998,246585.4164934572
863.6511742999999,256121.81555015274
857.6657193,266886.85757746204
851.7717787,278906.1215145117
845.9674256000001,293568.1470392196
840.2507849,310457.7819771007
834.6200316000001,330362.46277490514
829.0733892000001,353113.1200511992
823.6091279,379282.32575922774
818.2255633999999,409809.0400256553
812.9210552000001,443350.5920804392
807.694005,480869.8869432505
802.5428559,518655.88042605383
797.4660904,558624.8851597557
792.4622299,602280.3222367215
787.5298327,647406.4921031035
782.6674933999999,696445.0604343086
777.8738417999999,751642.2491691185
773.1475413,812389.2569446869
768.4872882999999,888808.2896078523
763.8918112000001,979574.9473748788
759.3598692,1088222.0097226594
754.8902515999999,1218771.9238794376
750.4817767999999,1371927.5070207098
746.1332914,1547338.2835837964
741.8436694000001,1741580.135939216
737.6118116,1951888.5024982826
733.4366444,2173787.8696100833
729.3171195,2400109.991610988
725.2522127999999,2635302.414303928
721.2409241,2874477.7427235083
717.282276,3124203.9083261644
713.3753136,3390223.3605718995
709.5191037000001,3666156.69081316
705.7127343,3953202.9816744095
701.9553139,4246157.726536619
698.2459709,4546173.463682666
694.5838534,4842183.1649593655
690.9681281000001,5126056.736022593
687.3979803,5375111.426652568
683.8726131,5578360.770015612
680.3912472999999,5745048.421766909
676.9531202000001,5864804.170558573
673.557486,5949041.462929842
670.2036149,6007071.14798133
666.8907926,6033124.142055392
663.6183202999999,6041693.839531972
660.3855139,6041921.571034555
657.1917038,6041431.789169714
654.0362346,6042488.480582988
650.9184646000001,6041647.159372375
647.8377654,6042215.662356706
644.7935217999999,6042038.00370939
641.7851312999999,6042469.584234884
638.8120038,6042332.257315101
635.8735614,6040685.494010331
632.9692378999999,6040884.669322569
630.0984786,6041899.308723135
627.2607402000001,6041804.949923255
624.4554901,6042121.053928701
621.6822068,6040814.689610273
618.940379,6041483.717334081
616.2295054,6041571.310723105
613.549095,6041731.232065635
610.8986664,6041439.466524815
608.2777476,6041620.243592324
605.6858758999999,6041895.788607575
603.1225977000001,6041561.445189347
600.5874682,6041453.547991672
598.0800512,6041693.617317114
595.5999188999999,6041037.271721057
593.1466518,6041317.18454724
590.7198384999999,6041195.802301766
588.3190752,6041479.35051953
585.943966,6041256.136890697
583.5941226,6041781.950541796
581.2691637,6041659.869944397
578.9687155,6041534.220548852
576.692411,6041500.615752903
574.4398902,6041357.643131611
572.2107997,6041590.711343912
570.0047927,6041033.139842993
567.8215287,6041671.961774786
565.6606737000001,6041288.354312613
563.5218996,6041404.266695954
561.4048845,6041548.538756824
559.3093121,6041525.773062282
557.2348721,6041127.569434409
555.1812597,6041290.305053735
553.1481756000001,6041382.253687632
551.1353259,6041356.833096056
549.1424218999999,6040787.524003737
547.1691801,6041424.950211734
545.2153222000001,6041309.5459722085
543.2805745000001,6041411.095369807
541.3646685,6041348.801239125
539.46734,6041452.5870031025
537.5883299,6041352.830320087
535.7273833,6041642.149843018
533.8842498,6041572.313019796
532.0586836,6041501.673625018
530.2504428000001,6041635.747013687
528.45929,6041404.631805018
526.6849915,6041450.208761146
524.927318,6041685.914307669
523.186044,6041943.420064665
521.4609475999999,6041427.329145363
519.7518110000001,6041485.374739473
518.0584200000001,6041352.853878855
516.3805639,6041171.406412605
514.7180356,6041643.007353357
513.0706316000001,6041626.064242821
511.43815149999995,6041576.759480484
509.82039860000003,6041702.788288702
508.2171791999999,6041488.730421856
506.628303,6041262.769283545
505.05358269999994,6041431.452090068
503.4928341,6041388.35867455
501.9458762,6041681.87303224
500.41253059999997,6041630.451650838
498.8926222,6041163.865162609
497.3859785,6041649.7531191
495.89242989999997,6041345.021382397
494.4118094,6041181.494685638
492.943953,6041004.815408467
491.488699,6041424.538378818
490.04588839999997,6041215.756411972
488.6153648,6041413.011388143
487.19697429999997,6041611.607240247
485.7905654,6041277.5673468765
484.39598889999996,6041315.295525143
483.01309800000007,6041303.4992482215
481.64174840000004,6041284.0973450225
480.28179789999996,6041612.62773269
478.93310639999993,6041332.925225039
477.59553619999997,6040912.517056083
476.2689517,6041862.008924368
474.9532192,6041385.397540406
473.6482074,6041519.500153072
472.35378679999997,6041102.127834718
471.06982989999995,6041215.9228567965
469.79621110000005,6041138.394982131
468.53280700000005,6041436.115076382
467.2794956999999,6041077.998780117
466.0361575,6041602.531591498
464.80267410000005,6041810.036251855
463.5789295,6041508.16836849
462.364809,6041185.438648768
461.1601998,6041446.061754393
459.9649909,6041199.688295725
458.7790727,6041224.995071359
457.6023374,6040812.250556887
456.4346788,6041231.0432013
455.2759921,6041835.513794542
454.12617439999997,6041789.748333051
452.9851239,6041483.3132514935
451.85274060000006,6041534.413203171
450.7289258,6041444.294937941
449.6135822,6041131.190021716
448.5066141,6041055.808576315
447.407927,6041723.384480666
446.317428,6041718.435262717
445.23502520000005,6041502.5750128
444.1606283,6041008.777991214
443.0941482,6041097.839999002
442.03549699999996,6041132.346565862
440.9845882,6041092.2739690235
439.9413364,6041651.535841515
438.9056575,6041208.690127199
437.87746860000004,6041676.07412673
436.85668780000003,6041813.202143514
435.8432345,6041433.031607321
434.83702930000004,6041179.489829567
433.83799369999997,6041225.669950186
432.84605039999997,6041261.7348466385
431.8611232,6041194.372464707
430.8831369,6041451.87822465
429.9120175,6040921.698172374
428.94769169999995,6037534.558903426
427.9900874,6029008.792997196
427.03913370000004,6014816.034585029
426.0947602,5991374.5990585
425.1568978,5959202.177579452
424.22547829999996,5915437.173373404
423.3004343,5857486.3115370935
422.3816994,5786060.912999596
421.4692081,5703084.558002591
420.56289569999996,5609701.231058911
419.66269850000003,5507730.11153622
418.7685535,5397342.924469621
417.8803987,5279716.912428989
416.9981727,5155869.924070647
416.12181519999996,5025903.192613967
415.25126639999996,4891278.167986304
414.38646760000006,4751404.093139267
413.5273605,4605902.106023375
412.673888,4456294.819583471
411.8259934,4304247.868756531
410.9836208,4150465.723493325
410.14671519999996,3996740.414354823
409.3152221,3844544.459900479
408.48908789999996,3695816.0793572883
407.66825960000006,3550936.6884513283
406.8526847,3411386.2111227033
406.0423117,3276259.4363654084
405.2370896,3147113.5802435908
404.43696800000004,3022101.4731335896
403.64189730000004,2901811.6186488937
402.8518283,2785317.5399085646
402.0667126,2671494.910400877
401.28650239999996,2560064.8999186684
400.5111505,2450454.364151959
399.7406101,2340974.8886444564
398.9748353,2231914.5961502185
398.2137806,2123168.294235938
397.457401,2014508.1749351863
396.7056521,1906819.6011855863
395.9584903,1800579.2646274632
395.2158722,1696842.7442020618
394.4777551,1595836.6968286226
393.7440968,1500436.1602020196
393.0148555,1410996.498906047
392.2899901,1328314.1915965392
391.56946,1251878.4704093218
390.853225,1182113.1361996394
390.1412452,1118690.3934575191
389.43348169999996,1060091.3313379372
388.7298955,1006126.3407694278
388.03044839999995,954956.457474372
387.3351027,905160.7134459051
386.6438209,856959.0595503255
385.95656610000003,808836.7069598151
385.2733019,760687.1229988763
384.5939922,712300.4338291985
383.9186014,663870.0496757753
383.2470943,615455.2981602387
382.5794362,567514.8997282304
381.9155926,520722.012720031
381.2555296,475555.194794653
380.59921360000004,432407.9751993031
379.9466115,391906.0281828775
379.29769039999996,354506.4353871235
378.652418,320237.59889456717
378.0107622,289577.1218292003
377.37269130000004,262443.964767276
376.73817410000004,238711.7707904181
376.1071796,218216.3186531277
375.47967719999997,200466.24675817337
374.8556368,185294.71261118865
374.2350283,172295.9496020709
373.6178223,161112.324670683
373.0039896,151372.86226079526
372.3935012,142791.62818391554
371.78632860000005,135162.991902923
371.1824436,128200.38145246565
370.5818182,121900.04438574494
369.98442489999996,116101.07600539755
369.39023629999997,110729.9604974467
368.7992255,105747.53904682369
368.2113658,101101.20020537463
367.6266307,96721.34900666213
367.0449943,92638.15975489293
366.4664305,88764.82411676482
365.89091410000003,85109.21061230738
365.3184196,81617.34463653769
364.7489221,78298.69645890746
364.18239689999996,75037.72714051572
363.61881960000005,71879.39807753164
363.058166,68789.84546790243
362.50041219999997,65776.91616137674
361.94553460000003,62823.992916318406
361.3935098,59916.5966507641
360.8443147,57123.105028698876
360.29792630000003,54385.91471236466
359.754322,51773.148775329784
359.2134795,49262.93447728707
358.6753765,46865.441004319466
358.1399912,44574.263820683605
357.6073018,42398.946633746345
357.077287,40296.90288777981
356.5499253,38292.23686343283
356.025196,36373.24343128356
355.50307799999996,34499.687216111706
354.983551,32693.976717180536
354.4665945,30971.239857538792
353.95218839999995,29295.190866976798
353.4403127,27659.883598631382
352.9309478,26103.53772602121
352.42407410000004,24622.08918375767
351.9196722,23199.227252027256
351.4177232,21838.479730108
350.91820789999997,20562.612746120623
350.4211078,19335.45837138076
349.9264043,18165.01867194141
349.434079,17062.424592814812
348.9441137,16011.433147577049
348.45649060000005,15016.399997871591
347.97119169999996,14071.089543092552
347.48819960000003,13147.499653424378
347.0074967,12288.70875991632
346.5290657,11484.880465303171
346.0528897,10720.940130780778
345.5789517,9997.474286325367
345.1072349,9316.92778494105
344.6377228,8674.438276609777
344.17039889999995,8066.197174555656
343.70524710000007,7501.318231421278
343.24225110000003,6948.046556023824
342.7813952,6427.646256324775
342.32266339999995,5922.497282169526
341.8660403,5433.8282157759495
341.4115102,4994.272167806889
340.959058,4566.159740444446
340.5086685,4172.003854493803
340.06032660000005,3808.0458547270014
339.6140175,3481.880308088988
339.1697264,3180.675482002585
338.7274388,2907.420846856598
338.28714019999995,2654.3820919122954
337.8488164,2426.6833942292637
337.41245310000005,2218.185781734674
336.9780363,2026.4697566935235
336.5455522,1844.6207107781217
336.114987,1682.7822701722685
335.686327,1514.6540913982171
335.2595588,1359.0458610885278
334.834669,1212.2624579411709
334.4116443,1069.0381494721173
333.9904716,927.397655494402
333.57113799999996,790.6801849871646
333.1536305,657.2792546821643
332.73793639999997,540.8967012655613
332.32404310000004,435.4326760393463
331.91193799999996,331.19590280717625
331.5016088,259.47639705602404
331.0930432,194.04520033606343
330.6862289,130.6750030779422
330.281154,89.02206509556129
329.8778065,61.929887803391935
329.47617460000004,42.5889783440137
329.07624649999997,23.477927329854175
328.6780106,14.639965975157356
328.2814555,4.357349098677662
327.88656960000003,4.230255608676812
327.4933418,2.6226324139825965
327.1017607,0.4826946959437966
326.7118154,0.3232193591240821
326.32349480000005,0.08021877834638387
325.93678789999996,-0.6230479166521822
325.5516841,-1.6660659628519132
325.16817260000005,-4.573338485161863
324.7862428,3.6725628901443272
324.40588419999995,3.075219707402075
324.0270864,-1.5172511351371718
323.649839,-0.26975689960881993
323.2741319,-2.154074053982656
322.8999548,-0.07486086748710986
322.5272977,-0.7698532175844217
322.1561508,-2.9629177049482798
321.786504,-4.707627016743298
321.4183476,1.2776278091269635
321.0516719,4.116102396752615
320.6864673,3.170834616970038
320.3227243,0.12350322660442407
319.96043330000003,0.2399847717690205
319.5995851,0.5823364746272329
319.2401704,4.9751565107624165
318.8821799,-1.439092131843671
318.5256045,0.4607980795230444
318.1704352,-2.2479073986626883
317.8166631,-0.6387795739582087
317.4642791,3.614908275170648
317.1132746,-1.4567704470366631
316.76364069999994,3.616803796394368
316.4153688,1.2665519629011155
316.06845039999996,-0.3599678108847401
315.72287689999996,-2.248910875716948
315.37863980000003,-1.4921250173256937
315.0357308,3.868136549392304
314.6941415,0.65442940631267
314.3538639,4.332610972217937
314.0148896,-0.17186608927279184
313.6772106,-6.377041145282277
313.3408189,2.348642601454054
313.00570639999995,-0.016319625913904248
312.67186549999997,0.8682436729235797
312.33928810000003,3.6540365422282552
312.0079665,-0.3990528938358794
311.6778931,1.94850485884696
311.34906010000003,0.4538647056709301
311.0214601,-0.503134996961273
310.6950856,2.281844861827578
310.369929,2.170828032256347
310.04598300000004,0.5333966057053106
309.7232403,1.184540030449322
309.4016935,-1.4658870838466682
309.0813356,0.7733973482873358
308.7621594,-2.9238127636147864
308.4441577,-1.2971736885846803
308.1273236,1.6883585882633303
307.8116501,5.7091554162564
307.49713019999996,4.635367911385761
307.18375710000004,1.0041136490429436
306.871524,2.1230565606278065
306.5604242,-0.6471215673432126
306.2504509,-0.02384017984352433
