wave,flux
1817.164934,43.733499511062575
1790.1022050000001,5.8072571724746345
1763.812741,5.863364450839502
1738.2646949999998,41.788532466713335
1713.427949,36.40392453327623
1689.273995,1119.658116048778
1665.7758310000002,3936.614044376811
1642.907862,8421.400112607087
1620.64581,14532.254208928132
1598.9666300000001,22403.73716326816
1577.8484310000001,31917.634285862783
1557.270407,43182.28056194411
1537.212767,56199.526464110895
1517.65668,69023.92044346857
1498.5842089999999,80539.89431313556
1479.978265,90874.02551403329
1461.822555,100315.79349720226
1444.101535,108578.7175689173
1426.800368,115911.9733281614
1409.904887,122517.71631287449
1393.401553,128118.0926974308
1377.2774220000001,133551.0504023839
1361.520115,139339.08262464046
1346.117782,145261.84741770258
1331.059081,151063.18004649883
1316.3331449999998,156481.5292946107
1301.92956,161680.93502208125
1287.838342,166197.03449062278
1274.049912,170177.5378295443
1260.5550779999999,173672.8084157547
1247.345017,176755.3787969586
1234.4112519999999,179456.46443988135
1221.74564,181901.40919176763
1209.340352,184367.25445964446
1197.187859,186551.99686388878
1185.28092,188998.60964488765
1173.612564,191166.09721995593
1162.1760800000002,193603.64476337234
1150.9650060000001,196042.0764574864
1139.973115,198353.5694365343
1129.194406,200609.5584112971
1118.623093,203275.8253546692
1108.253594,205471.7964926527
1098.0805269999998,207965.13405477235
1088.098695,210498.31631591066
1078.303081,213063.81330761433
1068.688841,216482.81841433863
1059.251295,220941.0131136605
1049.9859199999999,226260.9808100807
1040.8883449999998,233000.7480790947
1031.9543429999999,241927.72712035093
1023.1798259999999,252719.12002034852
1014.5608390000001,265572.8709660321
1006.0935529999999,280313.22214961983
997.774265,296970.2282079952
989.5993858999999,314723.646544106
981.5654412999999,333188.4591255082
973.6690651,352017.37199126155
965.9069952,370562.0390478253
958.2760697000001,388017.77959417796
950.7732231000001,403620.3708418674
943.3954827,418521.00922816666
936.1399648,431356.43135332456
929.0038716,441702.08641483047
921.9844879000001,450922.959578812
915.0791782,458931.88131852297
908.2853836000002,466323.71840848227
901.6006193,473611.1342355961
895.0224714,482689.4024826333
888.548595,492553.5052043204
882.1767113,504780.29933890456
875.9046055,521190.117371961
869.7301242999998,541893.8711387438
863.6511742999999,567129.9286100685
857.6657193,599242.9222975938
851.7717787,636832.1791371086
845.9674256000001,683365.7276250335
840.2507849,740301.436683715
834.6200316000001,810612.1836127305
829.0733892000001,892365.7826213662
823.6091279,985364.5007990478
818.2255633999999,1092545.9306247071
812.9210552000001,1210565.3467923095
807.694005,1331137.115621406
802.5428559,1457597.4531862743
797.4660904,1584870.2127698944
792.4622299,1715410.1319241354
787.5298327,1850555.3142016602
782.6674933999999,1998968.2724147856
777.8738417999999,2179396.7729405807
773.1475413,2405602.9075202867
768.4872882999999,2678194.6074933414
763.8918112000001,2997311.6865340886
759.3598692,3359584.2643427406
754.8902515999999,3752680.288020646
750.4817767999999,4164145.634999435
746.1332914,4576984.710499624
741.8436694000001,4962496.434978046
737.6118116,5284786.68175525
733.4366444,5545497.531152519
729.3171195,5739760.609699389
725.2522127999999,5885606.584743165
721.2409241,5975270.520750578
717.282276,6020623.665028643
713.3753136,6039322.316020298
709.5191037000001,6040929.219251077
705.7127343,6036924.550101773
701.9553139,6044304.559470959
698.2459709,6041729.395344897
694.5838534,6042288.105745064
690.9681281000001,6042877.393376614
687.3979803,6039820.017951736
683.8726131,6040173.235367037
680.3912472999999,6039542.852926109
676.9531202000001,6041237.016964771
673.557486,6041720.511010158
670.2036149,6040220.8380768085
666.8907926,6043382.715279857
663.6183202999999,6039767.481099464
660.3855139,6044209.565617161
657.1917038,6040451.200407289
654.0362346,6040694.7968833335
650.9184646000001,6041261.147673023
647.8377654,6040368.5862984825
644.7935217999999,6041410.648800323
641.7851312999999,6041771.057989413
638.8120038,6041520.068100263
635.8735614,6041784.9350692015
632.9692378999999,6041255.764472499
630.0984786,6042886.170518926
627.2607402000001,6042000.812980503
624.4554901,6041584.848614507
621.6822068,6040875.370046943
618.940379,6041573.229159327
616.2295054,6041391.707758947
613.549095,6041583.255539041
610.8986664,6041556.989302154
608.2777476,6041231.90216626
605.6858758999999,6041600.913584305
603.1225977000001,6041494.44591789
600.5874682,6041581.122115227
598.0800512,6041535.280329238
595.5999188999999,6041307.63471211
593.1466518,6041567.851546639
590.7198384999999,6041481.966618087
588.3190752,6041472.772493417
585.943966,6041316.983584221
583.5941226,6041327.147537802
581.2691637,6041760.619790108
578.9687155,6041393.976567787
576.692411,6041561.447419178
574.4398902,6041323.965258673
572.2107997,6041426.186528136
570.0047927,6041436.134916827
567.8215287,6041267.08115833
565.6606737000001,6041388.17731338
563.5218996,6041560.071250504
561.4048845,6041941.693407962
559.3093121,6041264.869200509
557.2348721,6041588.948452357
555.1812597,6041580.553393324
553.1481756000001,6041350.832950674
551.1353259,6041172.984860962
549.1424218999999,6041425.5599649735
547.1691801,6041648.04202331
545.2153222000001,6041224.159022054
543.2805745000001,6041220.347184068
541.3646685,6041444.222729597
539.46734,6041610.818611416
537.5883299,6041408.370837941
535.7273833,6041326.992015965
533.8842498,6041578.995148879
532.0586836,6041508.582907948
530.2504428000001,6041703.696445899
528.45929,6041392.222331735
526.6849915,6041674.954724756
524.927318,6041763.685521546
523.186044,6041821.396146399
521.4609475999999,6041903.316129898
519.7518110000001,6040661.255662849
518.0584200000001,6041572.88437153
516.3805639,6041709.346164955
514.7180356,6041117.9186002435
513.0706316000001,6040990.9001338035
511.43815149999995,6041689.581274127
509.82039860000003,6041153.418304407
508.2171791999999,6041001.212753125
506.628303,6041458.699360807
505.05358269999994,6041448.214357697
503.4928341,6041617.578088539
501.9458762,6041317.00711571
500.41253059999997,6041544.482163164
498.8926222,6041780.616609992
497.3859785,6041589.434901938
495.89242989999997,6041099.659497721
494.4118094,6041278.104290986
492.943953,6041383.4893911425
491.488699,6041469.4190055225
490.04588839999997,6041314.348655166
488.6153648,6041261.67425588
487.19697429999997,6041795.956511256
485.7905654,6041445.324166718
484.39598889999996,6041358.149942678
483.01309800000007,6041614.880088078
481.64174840000004,6041481.130469179
480.28179789999996,6041532.921872158
478.93310639999993,6041699.011652516
477.59553619999997,6041028.648929936
476.2689517,6041748.961274172
474.9532192,6041071.0890365625
473.6482074,6041353.288823016
472.35378679999997,6041201.012232731
471.06982989999995,6041025.640980123
469.79621110000005,6041869.897964967
468.53280700000005,6041220.12976155
467.2794956999999,6041511.386205058
466.0361575,6041284.304362735
464.80267410000005,6041322.655052347
463.5789295,6041061.322572564
462.364809,6041304.658785323
461.1601998,6041302.895056552
459.9649909,6041095.974518935
458.7790727,6041605.246418707
457.6023374,6041374.567881506
456.4346788,6040936.525170118
455.2759921,6041232.3406061465
454.12617439999997,6041200.594921935
452.9851239,6041307.95616721
451.85274060000006,6041438.528361058
450.7289258,6041204.04277169
449.6135822,6041053.680045975
448.5066141,6041223.970596758
447.407927,6041142.274283308
446.317428,6041457.015238055
445.23502520000005,6041829.107630644
444.1606283,6041231.5438591875
443.0941482,6041623.870082658
442.03549699999996,6041232.920500062
440.9845882,6041481.056220057
439.9413364,6041591.566134282
438.9056575,6041614.976416652
437.87746860000004,6041616.366489555
436.85668780000003,6041502.436812969
435.8432345,6041551.414962185
434.83702930000004,6041064.997717605
433.83799369999997,6040980.293677477
432.84605039999997,6041672.5890157735
431.8611232,6041321.526889402
430.8831369,6041113.209958597
429.9120175,6041016.1516321525
428.94769169999995,6041141.758571291
427.9900874,6041502.717999453
427.03913370000004,6041500.046811452
426.0947602,6041162.121164591
425.1568978,6041375.056504424
424.22547829999996,6041612.906785639
423.3004343,6041368.101394111
422.3816994,6041403.9907180825
421.4692081,6041202.681018285
420.56289569999996,6041609.586897601
419.66269850000003,6041711.697312063
418.7685535,6041305.728065425
417.8803987,6041494.870303749
416.9981727,6041961.557005084
416.12181519999996,6041192.48907893
415.25126639999996,6041148.549496207
414.38646760000006,6041374.430010011
413.5273605,6041539.409526405
412.673888,6041652.346664421
411.8259934,6041516.178617405
410.9836208,6041082.838990694
410.14671519999996,6040951.138923477
409.3152221,6040912.427614547
408.48908789999996,6041982.08080901
407.66825960000006,6041109.249138505
406.8526847,6041487.855656259
406.0423117,6041054.104576915
405.2370896,6040623.49223648
404.43696800000004,6041270.3822846515
403.64189730000004,6041275.725272189
402.8518283,6041432.120313729
402.0667126,6041363.275032775
401.28650239999996,6041425.84012303
400.5111505,6041301.137258735
399.7406101,6041565.7474553585
398.9748353,6041184.794619232
398.2137806,6041176.1491480125
397.457401,6041200.527605723
396.7056521,6041302.782190336
395.9584903,6035480.19489486
395.2158722,6014584.201264933
394.4777551,5971071.447788379
393.7440968,5894285.263366999
393.0148555,5776578.862841908
392.2899901,5608909.9245204935
391.56946,5385324.0128893815
390.853225,5099701.247438945
390.1412452,4758322.791505837
389.43348169999996,4374091.526140079
388.7298955,3962880.026583485
388.03044839999995,3538804.95617364
387.3351027,3117932.685187547
386.6438209,2714847.544180476
385.95656610000003,2342640.045019149
385.2733019,2011245.3828310284
384.5939922,1726132.7910489906
383.9186014,1484860.0180359585
383.2470943,1285079.3902069614
382.5794362,1121770.7413420198
381.9155926,990293.0562677623
381.2555296,885152.7654139763
380.59921360000004,801020.4271270485
379.9466115,733663.0165434196
379.29769039999996,678570.3410427218
378.652418,633371.7432025453
378.0107622,595262.9394855499
377.37269130000004,562260.7180800335
376.73817410000004,533611.8866037253
376.1071796,508113.6692540807
375.47967719999997,485156.63091807463
374.8556368,464118.10750974773
374.2350283,444887.65597941546
373.6178223,426966.0795605353
373.0039896,410396.71005609696
372.3935012,394976.0974542564
371.78632860000005,380619.9186995905
371.1824436,367337.64684764046
370.5818182,355006.06202763354
369.98442489999996,343617.2482929359
369.39023629999997,332979.25371972827
368.7992255,323083.38031800865
368.2113658,313710.32749458763
367.6266307,304621.8737863437
367.0449943,295718.07253190066
366.4664305,286856.34170439193
365.89091410000003,277904.61324214534
365.3184196,268623.2911025585
364.7489221,259196.85744963613
364.18239689999996,249664.72425920304
363.61881960000005,239920.42744441386
363.058166,230306.69153558058
362.50041219999997,220791.25557816282
361.94553460000003,211358.9222197272
361.3935098,202267.20823316652
360.8443147,193399.90290816195
360.29792630000003,184829.90653445656
359.754322,176415.59153348766
359.2134795,168239.08898679476
358.6753765,160213.06538830086
358.1399912,152417.31846577438
357.6073018,144855.37185462218
357.077287,137458.32301163735
356.5499253,130341.94662575165
356.025196,123593.35826525756
355.50307799999996,117235.08021563645
354.983551,111224.29420946883
354.4665945,105622.73376548351
353.95218839999995,100311.18963306726
353.4403127,95309.60904894104
352.9309478,90659.80396168276
352.42407410000004,86235.76589267381
351.9196722,82025.57389806861
351.4177232,78040.18860307492
350.91820789999997,74156.81390690086
350.4211078,70306.90757328887
349.9264043,66595.14809738804
349.434079,62976.008370352996
348.9441137,59353.95715332817
348.45649060000005,55839.68386446727
347.97119169999996,52384.219211651
347.48819960000003,48969.74770812821
347.0074967,45804.76734555947
346.5290657,42884.852089213084
346.0528897,40191.92081577471
345.5789517,37698.79009398703
345.1072349,35421.152127606816
344.6377228,33329.06805340353
344.17039889999995,31431.005544587373
343.70524710000007,29623.07424266542
343.24225110000003,27818.084967087285
342.7813952,26082.42408395933
342.32266339999995,24443.42092535613
341.8660403,22886.581050954712
341.4115102,21362.80729509833
340.959058,19874.02722078
340.5086685,18335.63840569878
340.06032660000005,16802.780074026854
339.6140175,15312.762122608485
339.1697264,13793.129419853465
338.7274388,12187.085671369094
338.28714019999995,10536.62051331605
337.8488164,8877.815052235454
337.41245310000005,7245.498493996854
336.9780363,5746.677605784637
336.5455522,4422.799719123455
336.114987,3280.432212390401
335.686327,2306.8677082721592
335.2595588,1528.6201872669144
334.834669,958.8751900459756
334.4116443,558.1396212923041
333.9904716,320.5333784999669
333.57113799999996,177.35390257735105
333.1536305,85.18637992147465
332.73793639999997,26.93309807061164
332.32404310000004,7.752689007902057
331.91193799999996,2.1887567488035997
331.5016088,-1.784846101697822
331.0930432,0.16879923433588306
330.6862289,0.5775307956500615
330.281154,0.6673534023628639
329.8778065,-4.184799860533138
329.47617460000004,7.841378979292514
329.07624649999997,-0.09986017680474576
328.6780106,-0.2650483688168124
328.2814555,1.821301367275394
327.88656960000003,-3.585366393724947
327.4933418,0.979287470130769
327.1017607,-4.496308097199427
326.7118154,0.07936128356115618
326.32349480000005,2.7910459061740203
325.93678789999996,-0.1585678762699
325.5516841,-2.2325306683900563
325.16817260000005,5.259163793054992
324.7862428,-2.2028567358114715
324.40588419999995,-1.8745987368698382
324.0270864,-5.306247126021002
323.649839,-0.454691791383315
323.2741319,-2.146548468206496
322.8999548,-0.2866397998272961
322.5272977,0.20454125460989173
322.1561508,-0.42319641003569264
321.786504,4.361890098787839
321.4183476,-3.573592052669618
321.0516719,-1.3112352740496909
320.6864673,-3.7210208125037014
320.3227243,-0.7845315448549252
319.96043330000003,3.259175165043382
319.5995851,-0.7202070030102435
319.2401704,1.3832838974636397
318.8821799,-2.5024668879975165
318.5256045,-0.1277193356360944
318.1704352,1.661086852214492
317.8166631,6.906937379171038
317.4642791,3.6829891907250265
317.1132746,-4.94648833692361
316.76364069999994,1.4959610121483855
316.4153688,0.14688754803061996
316.06845039999996,1.8645920403531404
315.72287689999996,2.0321015452960967
315.37863980000003,-0.06048609735084784
315.0357308,-0.03756239031908906
314.6941415,-0.8405684365150974
314.3538639,-0.04762192358648271
314.0148896,3.3351363751154004
313.6772106,2.192625909491136
313.3408189,1.9709188298904503
313.00570639999995,-2.698440810038366
312.67186549999997,0.6179379334406208
312.33928810000003,0.7639100955865732
312.0079665,0.979204203893246
311.6778931,2.0138691350108537
311.34906010000003,4.5109117697366665
311.0214601,-3.4438421040759915
310.6950856,0.2153738708431341
310.369929,-4.15759700476297
310.04598300000004,-0.8397409630341269
309.7232403,-0.22243023683268787
309.4016935,2.916561525437578
309.0813356,-2.5153292213149236
308.7621594,-0.7877352020460463
308.4441577,2.217827742403419
308.1273236,-1.2023625678884169
307.8116501,-0.23341329954449105
307.49713019999996,-0.5456120658387718
307.18375710000004,-0.8925143738388935
306.871524,2.022530576643581
306.5604242,1.4839198022853046
306.2504509,-0.4477998754716004
