wave,flux
1817.164934,2.7903682407239723
1790.1022050000001,-7.677565859377915
1763.812741,8.84291041738842
1738.2646949999998,21.455968267520664
1713.427949,71.01625829069101
1689.273995,205.16684686879145
1665.7758310000002,465.180429672459
1642.907862,909.6679392466824
1620.64581,1560.4451848946378
1598.9666300000001,2464.8495977245016
1577.8484310000001,3660.144072042601
1557.270407,5139.551851668033
1537.212767,6924.279319006623
1517.65668,8946.972249574808
1498.5842089999999,11152.136964376505
1479.978265,13483.652706282726
1461.822555,15875.170123602924
1444.101535,18256.15175409381
1426.800368,20663.603003488082
1409.904887,22974.59354468601
1393.401553,25152.474762875594
1377.2774220000001,27207.74338144636
1361.520115,29159.422952161585
1346.117782,31013.67755870271
1331.059081,32808.23039402416
1316.3331449999998,34508.318781077054
1301.92956,36161.596853978095
1287.838342,37823.99793900744
1274.049912,39452.74534185049
1260.5550779999999,41122.91584588615
1247.345017,42720.19038273575
1234.4112519999999,44439.33412621063
1221.74564,46056.84655843443
1209.340352,47780.705145824635
1197.187859,49472.82985380948
1185.28092,51300.33136883303
1173.612564,53126.70849706504
1162.1760800000002,55073.75545808203
1150.9650060000001,57062.10607451572
1139.973115,59131.822018808445
1129.194406,61405.21110781082
1118.623093,63731.525292990045
1108.253594,66182.4809976827
1098.0805269999998,68652.27145235677
1088.098695,71230.06176599812
1078.303081,73887.83304732715
1068.688841,76706.51910600532
1059.251295,79656.08044351905
1049.9859199999999,82788.03003356184
1040.8883449999998,86118.92614604213
1031.9543429999999,89810.58297470787
1023.1798259999999,93828.99084640766
1014.5608390000001,98241.99235115456
1006.0935529999999,103308.03869030908
997.774265,108650.61635485713
989.5993858999999,114406.57679543586
981.5654412999999,120634.07875635312
973.6690651,127066.16575604642
965.9069952,133852.32809611686
958.2760697000001,140571.69012179234
950.7732231000001,147534.92168626314
943.3954827,154299.73391460787
936.1399648,161026.16195329753
929.0038716,167681.86091631587
921.9844879000001,173946.07114845913
915.0791782,180335.4841854507
908.2853836000002,186591.12595290144
901.6006193,192499.0513934037
895.0224714,198243.11423972656
888.548595,204417.1163835341
882.1767113,210585.62460461172
875.9046055,217034.06308541112
869.7301242999998,224124.25507156336
863.6511742999999,231764.83947635192
857.6657193,240657.10202475853
851.7717787,250194.22272037165
845.9674256000001,261116.7163147195
840.2507849,274432.425376745
834.6200316000001,289542.45273701835
829.0733892000001,306444.1205264716
823.6091279,325839.11112687486
818.2255633999999,347596.4779482108
812.9210552000001,372032.73216120177
807.694005,399047.5680282843
802.5428559,427864.4344837104
797.4660904,457938.2028164365
792.4622299,489501.22426116344
787.5298327,525677.2805108436
782.6674933999999,563444.5562373614
777.8738417999999,604621.957690509
773.1475413,652314.6142142786
768.4872882999999,709279.0826368169
763.8918112000001,775250.838700737
759.3598692,854941.0493720494
754.8902515999999,951040.6870013314
750.4817767999999,1062081.8315161918
746.1332914,1189314.497216722
741.8436694000001,1331661.5872574816
737.6118116,1491480.6059953417
733.4366444,1659785.7791179114
729.3171195,1840909.0339491237
725.2522127999999,2025990.388885357
721.2409241,2215388.789250113
717.282276,2414048.7840245585
713.3753136,2629730.259083881
709.5191037000001,2867446.6543145594
705.7127343,3129660.198656688
701.9553139,3423490.9660614417
698.2459709,3733786.9273036337
694.5838534,4062761.471025105
690.9681281000001,4403103.1882129265
687.3979803,4740981.471668023
683.8726131,5060237.846729915
680.3912472999999,5337433.666007556
676.9531202000001,5563207.067530723
673.557486,5738062.766337811
670.2036149,5868527.404564627
666.8907926,5956808.046474583
663.6183202999999,6011761.300185707
660.3855139,6034599.506590963
657.1917038,6041825.7346686125
654.0362346,6043172.784016889
650.9184646000001,6043681.090183509
647.8377654,6041292.605828818
644.7935217999999,6040541.274353753
641.7851312999999,6042223.68823831
638.8120038,6042079.808832075
635.8735614,6041455.854423637
632.9692378999999,6042801.864499102
630.0984786,6041536.566354227
627.2607402000001,6040900.301114238
624.4554901,6042934.377168233
621.6822068,6041415.572048964
618.940379,6041925.802334863
616.2295054,6041752.575852511
613.549095,6040843.771021344
610.8986664,6041489.8406516835
608.2777476,6041410.772836477
605.6858758999999,6041342.767257327
603.1225977000001,6041291.005842344
600.5874682,6041800.751216153
598.0800512,6040840.20215057
595.5999188999999,6041037.132297967
593.1466518,6041186.111246713
590.7198384999999,6041625.14650437
588.3190752,6041591.480852587
585.943966,6041411.342728056
583.5941226,6041743.653446264
581.2691637,6041429.367104127
578.9687155,6041333.289976482
576.692411,6041483.492196552
574.4398902,6041127.282764751
572.2107997,6041180.736484737
570.0047927,6041468.931029508
567.8215287,6041705.889067018
565.6606737000001,6041342.099381186
563.5218996,6041292.069861787
561.4048845,6041432.247058412
559.3093121,6041275.284558946
557.2348721,6041408.080654218
555.1812597,6041391.778634091
553.1481756000001,6041158.734189281
551.1353259,6041483.300776189
549.1424218999999,6040928.287720289
547.1691801,6041382.2001681635
545.2153222000001,6041213.448477113
543.2805745000001,6041265.053668727
541.3646685,6041641.45482959
539.46734,6041744.5240178015
537.5883299,6040998.727652018
535.7273833,6041576.080061744
533.8842498,6041597.918551484
532.0586836,6041181.779865973
530.2504428000001,6041778.091234977
528.45929,6041306.443211725
526.6849915,6041278.370203447
524.927318,6041481.21421669
523.186044,6041626.597149501
521.4609475999999,6041487.395836045
519.7518110000001,6041588.416544628
518.0584200000001,6041270.554383045
516.3805639,6041338.679487848
514.7180356,6041367.936035155
513.0706316000001,6041544.998348385
511.43815149999995,6041648.071973532
509.82039860000003,6041341.157045077
508.2171791999999,6041693.840252263
506.628303,6041416.933944343
505.05358269999994,6041562.9277509
503.4928341,6041532.400064516
501.9458762,6041075.144111819
500.41253059999997,6041477.255472835
498.8926222,6041277.068144242
497.3859785,6041150.2575229425
495.89242989999997,6041572.853114305
494.4118094,6041071.007765309
492.943953,6041253.665514397
491.488699,6041312.12242899
490.04588839999997,6041133.482790014
488.6153648,6041891.240105161
487.19697429999997,6041108.270392957
485.7905654,6041197.108887781
484.39598889999996,6041333.924783632
483.01309800000007,6041506.358268067
481.64174840000004,6041523.012406434
480.28179789999996,6041542.998804826
478.93310639999993,6041547.166712138
477.59553619999997,6041261.858674271
476.2689517,6041688.620696552
474.9532192,6041537.957819501
473.6482074,6041616.206139789
472.35378679999997,6041618.762474498
471.06982989999995,6041371.410006505
469.79621110000005,6041444.140096099
468.53280700000005,6041338.342546212
467.2794956999999,6041527.15523428
466.0361575,6041255.151516845
464.80267410000005,6041192.599712082
463.5789295,6041661.934417143
462.364809,6041302.3352544075
461.1601998,6041413.214144738
459.9649909,6041611.048717226
458.7790727,6041600.053895012
457.6023374,6041137.165824292
456.4346788,6041699.5246546725
455.2759921,6041121.088061732
454.12617439999997,6041518.6538190935
452.9851239,6041436.121551032
451.85274060000006,6041558.165268601
450.7289258,6041302.898291455
449.6135822,6041261.942510937
448.5066141,6037562.2593516875
447.407927,6026305.4096931415
446.317428,6003095.966036865
445.23502520000005,5962771.548561246
444.1606283,5902244.124333788
443.0941482,5816974.905909421
442.03549699999996,5701427.306034823
440.9845882,5550893.860783267
439.9413364,5368197.10434269
438.9056575,5155427.832463498
437.87746860000004,4915841.467684855
436.85668780000003,4652304.884204373
435.8432345,4368898.56082428
434.83702930000004,4069685.8510569
433.83799369999997,3760108.0602120864
432.84605039999997,3447198.573501133
431.8611232,3135206.6912036617
430.8831369,2828513.925106078
429.9120175,2531431.0083483616
428.94769169999995,2250364.7951423274
427.9900874,1989121.5807104243
427.03913370000004,1750864.3955227959
426.0947602,1538780.2213058954
425.1568978,1353564.4170484298
424.22547829999996,1194767.5366394632
423.3004343,1061132.9860111035
422.3816994,950542.717190136
421.4692081,859955.3636288046
420.56289569999996,786349.7768392217
419.66269850000003,726548.2708107929
418.7685535,677463.991639918
417.8803987,637009.6727962143
416.9981727,602640.3200411157
416.12181519999996,573017.8435036726
415.25126639999996,546793.2165082676
414.38646760000006,522973.91387293924
413.5273605,500762.5731775052
412.673888,480299.84079124476
411.8259934,460883.956005586
410.9836208,442556.4458458461
410.14671519999996,425397.85140919505
409.3152221,409243.76590123295
408.48908789999996,394041.9653643211
407.66825960000006,379891.50875052507
406.8526847,366616.6996531845
406.0423117,354124.43079114327
405.2370896,342361.6190450199
404.43696800000004,331226.2447163352
403.64189730000004,320372.13495802693
402.8518283,309941.8517114244
402.0667126,299743.7793256971
401.28650239999996,289678.1302835115
400.5111505,279852.3596389316
399.7406101,269725.79876688827
398.9748353,259400.4589675309
398.2137806,248916.72478271948
397.457401,238165.15153327855
396.7056521,227173.6468970373
395.9584903,215960.38033012304
395.2158722,204592.79826818552
394.4777551,193075.5631739634
393.7440968,182086.8065485989
393.0148555,171641.40295591127
392.2899901,161727.51135125651
391.56946,152573.8762171409
390.853225,144097.8381951275
390.1412452,136291.91005826753
389.43348169999996,129144.34943352998
388.7298955,122626.54801535605
388.03044839999995,116382.96986951279
387.3351027,110408.45852238633
386.6438209,104706.17040654382
385.95656610000003,99204.28921847473
385.2733019,93883.32906753905
384.5939922,88742.81459989172
383.9186014,83888.98598897793
383.2470943,79218.68282162803
382.5794362,74804.60464703555
381.9155926,70602.02772247416
381.2555296,66647.50561423418
380.59921360000004,62899.00820438987
379.9466115,59341.74608640468
379.29769039999996,55940.28604101587
378.652418,52683.91332287378
378.0107622,49572.25192791871
377.37269130000004,46603.431270984955
376.73817410000004,43729.59179280811
376.1071796,40971.527066065726
375.47967719999997,38320.17896380883
374.8556368,35756.80865310802
374.2350283,33291.779959487474
373.6178223,30951.568251104134
373.0039896,28723.86105645257
372.3935012,26613.044339053253
371.78632860000005,24618.894808470155
371.1824436,22740.58672222832
370.5818182,20977.40520608878
369.98442489999996,19339.25486504746
369.39023629999997,17779.348782285175
368.7992255,16297.841332622951
368.2113658,14890.645300602107
367.6266307,13530.584000635736
367.0449943,12215.166555898533
366.4664305,10964.292715608277
365.89091410000003,9768.393126827359
365.3184196,8623.398442575053
364.7489221,7561.359235180319
364.18239689999996,6567.486818609481
363.61881960000005,5620.47479648539
363.058166,4750.65069669229
362.50041219999997,3942.628085560447
361.94553460000003,3218.538530938917
361.3935098,2569.2218360456945
360.8443147,1988.6584133827307
360.29792630000003,1463.8177188984298
359.754322,1037.6286390767666
359.2134795,699.7979284497503
358.6753765,453.0251202738608
358.1399912,270.6558556461951
357.6073018,134.44767399100516
357.077287,57.19352619648343
356.5499253,15.518134936446351
356.025196,-1.7982308926532675
355.50307799999996,-2.541233398503521
354.983551,1.005592512410849
354.4665945,0.594708980999404
353.95218839999995,1.0243155281998528
353.4403127,-0.026159032097443045
352.9309478,-0.11252603797399427
352.42407410000004,1.7266439095935784
351.9196722,0.6249774252285817
351.4177232,0.6146179213953373
350.91820789999997,2.16046112288774
350.4211078,0.15325417787124826
349.9264043,-2.7061141211440947
349.434079,0.025381186505149173
348.9441137,-1.3629658316105606
348.45649060000005,-0.5976845042457686
347.97119169999996,-2.0631383109719943
347.48819960000003,1.046015965344126
347.0074967,4.117173693168184
346.5290657,0.2460976942859421
346.0528897,0.11669254838972723
345.5789517,4.2188062880573955
345.1072349,-5.284832540345128
344.6377228,1.3050611388600744
344.17039889999995,1.5711429901538798
343.70524710000007,-1.6999707868807137
343.24225110000003,1.469643500226737
342.7813952,-0.15504960806504622
342.32266339999995,-2.7135373811579644
341.8660403,-0.9053184956342429
341.4115102,-0.9556412782556504
340.959058,-0.3964558202780138
340.5086685,2.4192742841357657
340.06032660000005,1.5697143313051618
339.6140175,3.0394201497403954
339.1697264,-0.7594298685379028
338.7274388,0.6352709217752109
338.28714019999995,1.0538774493741825
337.8488164,1.6712071126791574
337.41245310000005,-0.3611629623031821
336.9780363,0.9187587920345198
336.5455522,3.684413144902632
336.114987,1.020261738577129
335.686327,1.7955202051104615
335.2595588,-3.246821359579346
334.834669,1.2554599282530088
334.4116443,0.030310268664848705
333.9904716,3.737841235221036
333.57113799999996,-0.07702827054184573
333.1536305,3.7545538957990834
332.73793639999997,3.2204516912569314
332.32404310000004,1.8213160070920595
331.91193799999996,-1.3887693146222546
331.5016088,2.737161249344428
331.0930432,-3.193085649517476
330.6862289,0.08261354307619423
330.281154,0.8933105783110442
329.8778065,-5.013265997669127
329.47617460000004,-1.293891973297983
329.07624649999997,1.4951047736757637
328.6780106,3.7161014286971
328.2814555,1.5395473756547975
327.88656960000003,1.2890487114828102
327.4933418,-4.9599904702666535
327.1017607,-1.3193817682714266
326.7118154,-1.5524811818925752
326.32349480000005,0.6771199716012026
325.93678789999996,1.2663675742228648
325.5516841,0.2381766622875477
325.16817260000005,0.33625902831746696
324.7862428,4.225625605894603
324.40588419999995,1.3437573955851347
324.0270864,2.9514309064493904
323.649839,2.062234557404396
323.2741319,-1.4735310022980863
322.8999548,0.28212562387683104
322.5272977,5.4115884794653
322.1561508,3.820449069247495
321.786504,1.0982941126002372
321.4183476,-1.1693965756769555
321.0516719,-1.0286138634184054
320.6864673,3.812292022959465
320.3227243,1.727338865325915
319.96043330000003,2.915378165408668
319.5995851,3.0146501810493227
319.2401704,-1.6202100509840107
318.8821799,-0.5004048748832753
318.5256045,2.5220743170639577
318.1704352,-1.5179428312185588
317.8166631,-2.5504744702402853
317.4642791,1.5159713394836745
317.1132746,-3.4297548713427157
316.76364069999994,0.5802501190007363
316.4153688,-1.5581480146121267
316.06845039999996,4.3477348139714165
315.72287689999996,0.7552586730125899
315.37863980000003,0.2833586637780327
315.0357308,0.3550033450895261
314.6941415,-0.32947606062278195
314.3538639,0.1813198729945088
314.0148896,1.644619668285881
313.6772106,0.7892029526354757
313.3408189,-1.4430692827575682
313.00570639999995,-0.2458980220291603
312.67186549999997,-2.222668240243852
312.33928810000003,0.9384473412492428
312.0079665,2.3425643508911587
311.6778931,2.2100656658794646
311.34906010000003,-0.17272221666012286
311.0214601,-2.678562089594001
310.6950856,-0.7316101578992793
310.369929,4.545922177504542
310.04598300000004,1.4512348848032963
309.7232403,1.8446273204422656
309.4016935,-1.6172539825212096
309.0813356,-1.8862172141833344
308.7621594,1.5346037203946914
308.4441577,-3.3930994761197644
308.1273236,-2.086260283047784
307.8116501,-2.8777059630659463
307.49713019999996,-0.5440858803825404
307.18375710000004,2.493942003808244
306.871524,-4.096302509516055
306.5604242,-0.2164538351979843
306.2504509,0.3700622378258827
