wave,flux
1817.164934,8.744128074690021
1790.1022050000001,-17.645654868983716
1763.812741,5.172566886689662
1738.2646949999998,25.51880374519403
1713.427949,74.26604576463723
1689.273995,281.7711734312838
1665.7758310000002,1076.8294285770849
1642.907862,2416.0356166594224
1620.64581,4332.211062083065
1598.9666300000001,6869.950266165017
1577.8484310000001,10051.81913287946
1557.270407,13896.301182940191
1537.212767,18402.66327751285
1517.65668,23230.562211777506
1498.5842089999999,27962.291923824618
1479.978265,32390.366366752118
1461.822555,36570.40549810986
1444.101535,40513.22829337847
1426.800368,44120.140451804466
1409.904887,47421.50420128184
1393.401553,50293.942744999884
1377.2774220000001,53089.117324244806
1361.520115,55792.02375343561
1346.117782,58598.30673303518
1331.059081,61365.438566316414
1316.3331449999998,64164.520782861146
1301.92956,67021.62839490424
1287.838342,69879.9599331944
1274.049912,72790.21726100508
1260.5550779999999,75647.08482029049
1247.345017,78531.14763901582
1234.4112519999999,81414.41460650483
1221.74564,84327.16201781857
1209.340352,87335.72053029304
1197.187859,90267.8902782756
1185.28092,93248.05449924471
1173.612564,96197.80617305354
1162.1760800000002,99202.85913132627
1150.9650060000001,102358.23511070313
1139.973115,105306.86963662613
1129.194406,108431.53637073221
1118.623093,111413.37685770592
1108.253594,114504.19234216787
1098.0805269999998,117498.10150321848
1088.098695,120638.55646823108
1078.303081,123756.54717747415
1068.688841,127208.78753403586
1059.251295,130690.12470369482
1049.9859199999999,134704.77114501994
1040.8883449999998,139006.94592363609
1031.9543429999999,143988.90379216993
1023.1798259999999,149666.8243836048
1014.5608390000001,156224.64548247404
1006.0935529999999,163312.87095378837
997.774265,171170.07459719438
989.5993858999999,179596.55525925427
981.5654412999999,188354.88139174852
973.6690651,197340.33701932762
965.9069952,206142.9116579397
958.2760697000001,214971.80834386012
950.7732231000001,223514.51275133714
943.3954827,231448.0161632805
936.1399648,238907.2158917602
929.0038716,245767.74703390378
921.9844879000001,251949.9759849473
915.0791782,257939.4903660171
908.2853836000002,263145.72985260753
901.6006193,268760.9558204346
895.0224714,274458.02327748324
888.548595,280210.1808307937
882.1767113,288183.8124195133
875.9046055,296428.9770403776
869.7301242999998,306109.5150953997
863.6511742999999,318798.80886969576
857.6657193,333107.75542966806
851.7717787,350610.95989192626
845.9674256000001,371293.9438914239
840.2507849,397594.15737234
834.6200316000001,428319.20425481227
829.0733892000001,464839.4654347661
823.6091279,506606.0925736846
818.2255633999999,553869.7829583939
812.9210552000001,607768.7915523765
807.694005,665026.0777070643
802.5428559,723783.9491425413
797.4660904,782821.18071228
792.4622299,843783.7635280867
787.5298327,910231.3532219513
782.6674933999999,978972.1866046154
777.8738417999999,1054684.4042290843
773.1475413,1148282.8563804254
768.4872882999999,1265504.779682839
763.8918112000001,1410855.7957115911
759.3598692,1595057.8083630474
754.8902515999999,1814357.0272845088
750.4817767999999,2077117.6929178743
746.1332914,2372960.267468328
741.8436694000001,2695612.4962281617
737.6118116,3034908.0813539037
733.4366444,3384992.688330912
729.3171195,3721508.4739660337
725.2522127999999,4048185.089383256
721.2409241,4354741.39127767
717.282276,4631698.659022744
713.3753136,4878742.026397028
709.5191037000001,5100018.705365797
705.7127343,5289502.120246215
701.9553139,5463067.637671092
698.2459709,5611108.7712998185
694.5838534,5735368.885280875
690.9681281000001,5830407.815586601
687.3979803,5904854.58293497
683.8726131,5959418.503774001
680.3912472999999,6001779.010585321
676.9531202000001,6025534.161231121
673.557486,6036956.411794984
670.2036149,6038901.413806076
666.8907926,6041335.906271232
663.6183202999999,6042439.995450341
660.3855139,6040193.251904332
657.1917038,6040873.402329125
654.0362346,6042761.233680372
650.9184646000001,6041417.195592259
647.8377654,6042397.647529765
644.7935217999999,6042352.0842118375
641.7851312999999,6041661.168565287
638.8120038,6040356.668400672
635.8735614,6042068.612686603
632.9692378999999,6040854.196991527
630.0984786,6041870.248945502
627.2607402000001,6041818.564917702
624.4554901,6041408.6041953685
621.6822068,6042951.460979446
618.940379,6041381.639686599
616.2295054,6041699.3426119685
613.549095,6041228.4261268815
610.8986664,6041795.782595389
608.2777476,6041592.557266062
605.6858758999999,6041635.573466835
603.1225977000001,6041466.591168105
600.5874682,6041299.125498476
598.0800512,6041377.14190765
595.5999188999999,6041129.307648232
593.1466518,6041495.69104145
590.7198384999999,6041273.062410221
588.3190752,6041442.2341309935
585.943966,6041127.261929623
583.5941226,6041055.730778133
581.2691637,6041751.091179865
578.9687155,6041410.896945301
576.692411,6041546.341819215
574.4398902,6041004.030682641
572.2107997,6041531.482731365
570.0047927,6041381.196989868
567.8215287,6041364.906088904
565.6606737000001,6041338.151299358
563.5218996,6041475.453913232
561.4048845,6041538.85692337
559.3093121,6041894.701246982
557.2348721,6041330.940997997
555.1812597,6041590.066217173
553.1481756000001,6041560.140577448
551.1353259,6041639.99922662
549.1424218999999,6041057.554571321
547.1691801,6041470.18274749
545.2153222000001,6041408.931224236
543.2805745000001,6041511.777828323
541.3646685,6041323.869343308
539.46734,6041532.80633328
537.5883299,6041641.9196882285
535.7273833,6041764.270998584
533.8842498,6041350.452169388
532.0586836,6041698.810332893
530.2504428000001,6041622.280273653
528.45929,6041819.502587898
526.6849915,6041864.3409271985
524.927318,6040996.41190291
523.186044,6041431.318833542
521.4609475999999,6041211.175541151
519.7518110000001,6041310.954868493
518.0584200000001,6041456.243352112
516.3805639,6041498.032712832
514.7180356,6041822.930486157
513.0706316000001,6041585.762950973
511.43815149999995,6041614.902566896
509.82039860000003,6041254.869791588
508.2171791999999,6041218.670684994
506.628303,6041222.167424957
505.05358269999994,6041536.929712279
503.4928341,6040966.161628078
501.9458762,6041095.253861524
500.41253059999997,6041393.838950323
498.8926222,6041479.226852972
497.3859785,6041668.095562927
495.89242989999997,6041312.386861166
494.4118094,6041273.450727032
492.943953,6041246.15648342
491.488699,6041525.5315676825
490.04588839999997,6041502.466588445
488.6153648,6041447.444036004
487.19697429999997,6041743.281479078
485.7905654,6041397.065159173
484.39598889999996,6041457.124514272
483.01309800000007,6041020.11435874
481.64174840000004,6041461.870675576
480.28179789999996,6041264.333037282
478.93310639999993,6041319.909073712
477.59553619999997,6041129.942433831
476.2689517,6041331.011377765
474.9532192,6041874.623750947
473.6482074,6041378.486717995
472.35378679999997,6041176.314872823
471.06982989999995,6041517.355760268
469.79621110000005,6041202.931081786
468.53280700000005,6041411.162780672
467.2794956999999,6041834.205552074
466.0361575,6041420.698134867
464.80267410000005,6041120.785758862
463.5789295,6039377.55034773
462.364809,6030214.083786189
461.1601998,6010020.686772369
459.9649909,5974052.108195762
458.7790727,5919143.14615777
457.6023374,5841241.402111547
456.4346788,5736247.341200906
455.2759921,5601173.138057428
454.12617439999997,5437517.27902732
452.9851239,5251040.13344412
451.85274060000006,5048871.8808366405
450.7289258,4835916.21202609
449.6135822,4620654.581397528
448.5066141,4409156.566457107
447.407927,4208096.204613606
446.317428,4024653.358499677
445.23502520000005,3863456.223263328
444.1606283,3725938.57901268
443.0941482,3613333.822139028
442.03549699999996,3525674.606240825
440.9845882,3461757.858399658
439.9413364,3417704.3823674633
438.9056575,3390201.6057817843
437.87746860000004,3372520.0532732904
436.85668780000003,3360010.916688387
435.8432345,3345277.95859126
434.83702930000004,3323491.4804371805
433.83799369999997,3290063.53213432
432.84605039999997,3241992.4352527987
431.8611232,3178252.944692693
430.8831369,3099618.3511114283
429.9120175,3007440.299701045
428.94769169999995,2904619.41443808
427.9900874,2794047.599930576
427.03913370000004,2679501.6446479745
426.0947602,2563679.971411687
425.1568978,2449402.109214956
424.22547829999996,2338209.863265684
423.3004343,2231869.0521039655
422.3816994,2131455.762990036
421.4692081,2037418.4724178875
420.56289569999996,1950652.966124765
419.66269850000003,1871910.056386815
418.7685535,1801155.0518282603
417.8803987,1738733.357228081
416.9981727,1684667.2713687597
416.12181519999996,1638783.0485897716
415.25126639999996,1600532.0109377212
414.38646760000006,1569315.2483081443
413.5273605,1543388.4838764768
412.673888,1521054.8912114757
411.8259934,1500999.7373793775
410.9836208,1480890.458478274
410.14671519999996,1458603.8247008347
409.3152221,1432854.3330944811
408.48908789999996,1402306.659281887
407.66825960000006,1366531.739176591
406.8526847,1325211.363895453
406.0423117,1279093.1174487644
405.2370896,1229207.7707040536
404.43696800000004,1176681.7586336231
403.64189730000004,1123237.763324165
402.8518283,1070171.9940180827
402.0667126,1018714.9011058136
401.28650239999996,969921.2341919156
400.5111505,924148.8626118812
399.7406101,880608.2933658287
398.9748353,838846.0957279663
398.2137806,798937.6354750739
397.457401,760213.9749987286
396.7056521,722085.5062851084
395.9584903,684417.9161619162
395.2158722,647019.3280246628
394.4777551,610061.0776798128
393.7440968,576140.0723926882
393.0148555,545473.8040865285
392.2899901,517951.5261402186
391.56946,494006.7722684285
390.853225,473756.95478912257
390.1412452,456779.3476779057
389.43348169999996,442618.1873663577
388.7298955,430702.99698071
388.03044839999995,419360.77174958226
387.3351027,407788.4290648099
386.6438209,396115.1254678599
385.95656610000003,383759.0019964083
385.2733019,370508.49907348154
384.5939922,356457.96432329493
383.9186014,342058.9231408325
383.2470943,327446.7487948067
382.5794362,313005.2496835155
381.9155926,299155.5968198243
381.2555296,285997.05593220843
380.59921360000004,273818.1930564516
379.9466115,262758.48781764536
379.29769039999996,252844.39197112643
378.652418,244074.42921881302
378.0107622,236523.72666314905
377.37269130000004,230026.6775876941
376.73817410000004,224412.92986224766
376.1071796,219537.41058841796
375.47967719999997,215198.46907146208
374.8556368,211203.49099344513
374.2350283,207362.83049143926
373.6178223,203650.13032047488
373.0039896,199926.80627600529
372.3935012,196005.0169862281
371.78632860000005,192025.7428491764
371.1824436,188000.98371766173
370.5818182,184120.68899419368
369.98442489999996,180423.9034745808
369.39023629999997,177072.46233801747
368.7992255,174227.80585163747
368.2113658,172023.49309776368
367.6266307,170566.4313713933
367.0449943,169886.33501373348
366.4664305,170096.24838082134
365.89091410000003,171233.35489988138
365.3184196,173168.1000913849
364.7489221,175934.45432691448
364.18239689999996,179436.3193258291
363.61881960000005,183578.38987048075
363.058166,188228.43463489038
362.50041219999997,193081.38784792388
361.94553460000003,198019.5954169595
361.3935098,202623.09719447696
360.8443147,206569.27355310388
360.29792630000003,209607.86094003308
359.754322,211342.78794686202
359.2134795,211604.56980837163
358.6753765,210153.39469408983
358.1399912,207010.37301445828
357.6073018,202216.22938412733
357.077287,196034.83733368854
356.5499253,188730.14146105762
356.025196,180666.35918195386
355.50307799999996,172346.5656916651
354.983551,164151.59013068525
354.4665945,156436.01547990798
353.95218839999995,149508.72600149846
353.4403127,143572.5156293916
352.9309478,138661.0950991011
352.42407410000004,134742.08550503818
351.9196722,131625.4027839776
351.4177232,129110.62548154345
350.91820789999997,126941.22719848016
350.4211078,124900.54105076178
349.9264043,122725.67210757716
349.434079,120271.08587277387
348.9441137,117393.57459858245
348.45649060000005,114048.42180024373
347.97119169999996,110243.12624397081
347.48819960000003,106025.93343389763
347.0074967,101511.78892599553
346.5290657,96755.67898031454
346.0528897,91971.71287954957
345.5789517,87203.56490589607
345.1072349,82560.71236362682
344.6377228,78126.93412114162
344.17039889999995,73952.21991081793
343.70524710000007,70024.09864181014
343.24225110000003,66352.97957745862
342.7813952,62931.90261022874
342.32266339999995,59728.08325236378
341.8660403,56733.89566967104
341.4115102,53845.0717599976
340.959058,51084.07728437338
340.5086685,48404.39629694272
340.06032660000005,45799.209992289245
339.6140175,43231.05709398594
339.1697264,40753.909190129736
338.7274388,38369.40207738688
338.28714019999995,36063.503715052946
337.8488164,33881.10421071407
337.41245310000005,31819.58265723765
336.9780363,29900.859490408053
336.5455522,28073.940815839433
336.114987,26339.58294172709
335.686327,24700.004432320897
335.2595588,23122.46670811772
334.834669,21554.288681652743
334.4116443,20029.69260536069
333.9904716,18525.83241683587
333.57113799999996,17041.574923093318
333.1536305,15599.924492396045
332.73793639999997,14204.208283833264
332.32404310000004,12891.461813312624
331.91193799999996,11662.920394670191
331.5016088,10533.619733514552
331.0930432,9529.5077726548
330.6862289,8641.053997315455
330.281154,7869.7115517378115
329.8778065,7200.003470751656
329.47617460000004,6630.644447267758
329.07624649999997,6150.031349613446
328.6780106,5732.341103447751
328.2814555,5371.3800165080465
327.88656960000003,5073.578872983478
327.4933418,4800.949819770404
327.1017607,4556.811236198094
326.7118154,4335.048047570114
326.32349480000005,4135.4305260212495
325.93678789999996,3946.615819387705
325.5516841,3776.0059711960057
325.16817260000005,3608.788655283393
324.7862428,3467.6320372270275
324.40588419999995,3325.051598012543
324.0270864,3198.795999265479
323.649839,3080.61945171959
323.2741319,2967.9092315475564
322.8999548,2866.896758696243
322.5272977,2774.0588524933805
322.1561508,2678.911645152281
321.786504,2591.970262814463
321.4183476,2502.361243664325
321.0516719,2422.048660405514
320.6864673,2334.513360392704
320.3227243,2252.35170226693
319.96043330000003,2168.9564220300567
319.5995851,2088.768436657478
319.2401704,2010.5726694093241
318.8821799,1935.9089432032235
318.5256045,1850.6109971808953
318.1704352,1772.5471518890774
317.8166631,1687.278581529995
317.4642791,1602.8361922036634
317.1132746,1519.2461312546814
316.76364069999994,1435.8040197172595
316.4153688,1341.0597865615946
316.06845039999996,1265.9393999899496
315.72287689999996,1182.2091172863134
315.37863980000003,1102.0076383994844
315.0357308,1040.2189607795158
314.6941415,975.589682315528
314.3538639,919.7286445074536
314.0148896,872.4729893463342
313.6772106,833.8860378939248
313.3408189,793.3922259314552
313.00570639999995,757.2365066518173
312.67186549999997,723.8076067731038
312.33928810000003,686.0187246779241
312.0079665,654.4173654037535
311.6778931,624.9640201130974
311.34906010000003,585.1425786523059
311.0214601,553.9057155744003
310.6950856,515.3207900926963
310.369929,478.74764480235694
310.04598300000004,444.46579722714966
309.7232403,420.4956292444422
309.4016935,380.1228033737543
309.0813356,348.5083907324646
308.7621594,326.4339635412269
308.4441577,308.32541750663154
308.1273236,280.6560488009971
307.8116501,254.7220077455412
307.49713019999996,210.5761551021732
307.18375710000004,167.65788605129808
306.871524,127.02020449907694
306.5604242,93.73710256691366
306.2504509,65.52952718928796
