wave,flux
1817.164934,-7.5544665407840705
1790.1022050000001,-5.1229077501925415
1763.812741,9.835231131632245
1738.2646949999998,-4.9572838004098045
1713.427949,78.01292249389489
1689.273995,1161.4974368722692
1665.7758310000002,3889.6034555654883
1642.907862,8255.621156653311
1620.64581,14256.199719941034
1598.9666300000001,22071.16788958514
1577.8484310000001,31589.598630580025
1557.270407,42824.424987865415
1537.212767,55725.146587923664
1517.65668,68649.23622364158
1498.5842089999999,80457.98325053391
1479.978265,91221.12711786044
1461.822555,100881.13556036164
1444.101535,109379.87950043095
1426.800368,116653.40400906382
1409.904887,122738.19578766574
1393.401553,127719.21872327085
1377.2774220000001,131912.32685570396
1361.520115,136317.67062663936
1346.117782,140413.79494093757
1331.059081,144539.67960619202
1316.3331449999998,148629.69740103133
1301.92956,152690.05427105824
1287.838342,156670.17373649572
1274.049912,160728.03955763573
1260.5550779999999,164917.81491304282
1247.345017,169077.31635182395
1234.4112519999999,173406.10720399447
1221.74564,177694.5416677961
1209.340352,182072.92634738047
1197.187859,186571.40738533335
1185.28092,191100.54786783343
1173.612564,195652.3451091664
1162.1760800000002,200444.1410469515
1150.9650060000001,205233.16439563944
1139.973115,209882.7471714369
1129.194406,214669.76979344024
1118.623093,219405.90466912775
1108.253594,223864.90586292007
1098.0805269999998,228627.0112208896
1088.098695,233241.08390604297
1078.303081,238245.98682418215
1068.688841,243720.36975858503
1059.251295,249881.9230086988
1049.9859199999999,257006.84158121824
1040.8883449999998,265455.6682426171
1031.9543429999999,276061.7921633939
1023.1798259999999,288518.7557543302
1014.5608390000001,303101.7685680532
1006.0935529999999,319241.6030530039
997.774265,337323.8010619885
989.5993858999999,355940.8999016391
981.5654412999999,375976.9822132643
973.6690651,395515.6445325489
965.9069952,414451.78091151844
958.2760697000001,433073.75109335326
950.7732231000001,449655.23777296906
943.3954827,464316.19853283814
936.1399648,476985.24091092654
929.0038716,488058.8539272128
921.9844879000001,497499.7824151329
915.0791782,504920.11711109494
908.2853836000002,511130.07158775255
901.6006193,518751.1261460951
895.0224714,526005.0636290484
888.548595,536088.0029144464
882.1767113,549068.6340685819
875.9046055,565403.1828186985
869.7301242999998,585855.8118058847
863.6511742999999,612817.9626376588
857.6657193,647255.5790762184
851.7717787,688769.5830360176
845.9674256000001,739131.6545839269
840.2507849,800599.8075734916
834.6200316000001,875041.7343417588
829.0733892000001,962354.2026670296
823.6091279,1062240.461791814
818.2255633999999,1172159.3573910932
812.9210552000001,1292311.1971732518
807.694005,1417611.1454672515
802.5428559,1544968.3222071019
797.4660904,1672963.9578783722
792.4622299,1807118.818177121
787.5298327,1945717.291032324
782.6674933999999,2099952.5347608547
777.8738417999999,2286694.755988923
773.1475413,2518803.671058132
768.4872882999999,2797885.2938411618
763.8918112000001,3116553.8931438327
759.3598692,3474191.925122681
754.8902515999999,3865535.457102532
750.4817767999999,4272178.070679668
746.1332914,4670013.25849051
741.8436694000001,5036400.5917434385
737.6118116,5345268.120221405
733.4366444,5586385.93205162
729.3171195,5769693.332312113
725.2522127999999,5901835.615379681
721.2409241,5981779.003867688
717.282276,6028663.479970872
713.3753136,6043120.931956997
709.5191037000001,6043836.994265505
705.7127343,6045185.640750772
701.9553139,6039880.607635733
698.2459709,6040456.8788388735
694.5838534,6042112.507242901
690.9681281000001,6040377.637449055
687.3979803,6041193.952768615
683.8726131,6041726.196856389
680.3912472999999,6039932.543317048
676.9531202000001,6039941.349879812
673.557486,6040191.022082206
670.2036149,6037903.943111696
666.8907926,6042377.224103939
663.6183202999999,6041674.709075756
660.3855139,6044055.46906296
657.1917038,6039930.661757243
654.0362346,6043219.722768196
650.9184646000001,6040602.120898662
647.8377654,6040919.283593884
644.7935217999999,6040230.616235618
641.7851312999999,6041818.271924231
638.8120038,6041240.61675268
635.8735614,6041103.078896649
632.9692378999999,6042983.241180109
630.0984786,6041971.51766504
627.2607402000001,6041083.903514781
624.4554901,6042886.714995108
621.6822068,6039723.632516652
618.940379,6041877.232299929
616.2295054,6041649.758555163
613.549095,6041297.855050247
610.8986664,6041492.493747043
608.2777476,6041308.7284332635
605.6858758999999,6040946.728004475
603.1225977000001,6040956.551179451
600.5874682,6041383.976471345
598.0800512,6041193.428496038
595.5999188999999,6041477.0801620325
593.1466518,6041139.05660587
590.7198384999999,6041302.702812118
588.3190752,6041259.192952815
585.943966,6041345.093814835
583.5941226,6041568.898878665
581.2691637,6041314.572474351
578.9687155,6041511.858079559
576.692411,6041908.7968851235
574.4398902,6041445.270375337
572.2107997,6041285.246083725
570.0047927,6041471.324451834
567.8215287,6041766.15099184
565.6606737000001,6041404.756990689
563.5218996,6041214.057087994
561.4048845,6041493.179022629
559.3093121,6040867.865939931
557.2348721,6041889.300646072
555.1812597,6041535.425706431
553.1481756000001,6041219.589641341
551.1353259,6041430.265011859
549.1424218999999,6041582.589533318
547.1691801,6041673.082065067
545.2153222000001,6040973.653877428
543.2805745000001,6041283.277355575
541.3646685,6041699.555989193
539.46734,6041676.079522057
537.5883299,6041704.318817336
535.7273833,6041341.4629591275
533.8842498,6041538.748725342
532.0586836,6041624.134468447
530.2504428000001,6041458.753809388
528.45929,6041348.268741524
526.6849915,6041626.9999207435
524.927318,6041484.542609484
523.186044,6041342.8041220475
521.4609475999999,6041020.783988087
519.7518110000001,6041390.254057055
518.0584200000001,6041694.141615007
516.3805639,6041263.370421058
514.7180356,6041344.557462956
513.0706316000001,6041681.268465933
511.43815149999995,6041230.454218054
509.82039860000003,6041212.68146204
508.2171791999999,6041194.426674683
506.628303,6041407.815781376
505.05358269999994,6040936.954937749
503.4928341,6041619.151325671
501.9458762,6041555.674428282
500.41253059999997,6041294.276174787
498.8926222,6041003.791413108
497.3859785,6041372.807061007
495.89242989999997,6041576.888212022
494.4118094,6040991.158430642
492.943953,6041430.5546384975
491.488699,6041802.449982211
490.04588839999997,6041561.99054785
488.6153648,6041696.2885308685
487.19697429999997,6041368.038439497
485.7905654,6041605.270523345
484.39598889999996,6041635.324271774
483.01309800000007,6041989.936079043
481.64174840000004,6041588.746019082
480.28179789999996,6041726.175117618
478.93310639999993,6041682.499777671
477.59553619999997,6041198.337506249
476.2689517,6041366.711390212
474.9532192,6041888.909498082
473.6482074,6041576.110752213
472.35378679999997,6041501.5021413425
471.06982989999995,6041695.047562864
469.79621110000005,6041161.1850788025
468.53280700000005,6041214.475120189
467.2794956999999,6041472.445085995
466.0361575,6041820.526121156
464.80267410000005,6040934.566595236
463.5789295,6041693.743674343
462.364809,6041999.778016646
461.1601998,6041463.271963351
459.9649909,6041631.983582499
458.7790727,6041926.153052782
457.6023374,6041768.73327836
456.4346788,6041480.8320802
455.2759921,6041389.074256772
454.12617439999997,6041409.408915091
452.9851239,6041181.964692278
451.85274060000006,6041230.313748841
450.7289258,6040952.81676589
449.6135822,6041468.272853106
448.5066141,6041702.0880502025
447.407927,6041156.249530545
446.317428,6041423.346200718
445.23502520000005,6041710.177506635
444.1606283,6041306.574701797
443.0941482,6041595.734672901
442.03549699999996,6041477.241347599
440.9845882,6041416.132225099
439.9413364,6041653.506593322
438.9056575,6041493.485010305
437.87746860000004,6041322.021704571
436.85668780000003,6041407.887260033
435.8432345,6041616.924998466
434.83702930000004,6041596.297592375
433.83799369999997,6041186.823579362
432.84605039999997,6041316.800973465
431.8611232,6041901.550749491
430.8831369,6041426.963762318
429.9120175,6041435.249708444
428.94769169999995,6041534.6883705035
427.9900874,6041584.4272001
427.03913370000004,6041901.764625423
426.0947602,6041220.353095732
425.1568978,6041469.825273585
424.22547829999996,6038965.989917956
423.3004343,6029593.868462014
422.3816994,6006459.055095144
421.4692081,5964241.475413426
420.56289569999996,5899112.603287747
419.66269850000003,5807255.868996932
418.7685535,5684470.727711824
417.8803987,5529291.986490198
416.9981727,5344092.782925813
416.12181519999996,5138613.407367134
415.25126639999996,4924120.4025757285
414.38646760000006,4710733.563971122
413.5273605,4508743.847641155
412.673888,4327084.177292618
411.8259934,4172396.0774491564
410.9836208,4050901.8604539325
410.14671519999996,3963990.834492332
409.3152221,3909047.993046337
408.48908789999996,3880717.967190059
407.66825960000006,3871524.2612394663
406.8526847,3874576.6214244138
406.0423117,3881742.169373276
405.2370896,3885606.32365542
404.43696800000004,3878669.783853197
403.64189730000004,3854661.6756708077
402.8518283,3809632.3509969483
402.0667126,3741059.618596508
401.28650239999996,3648077.815242893
400.5111505,3532644.5148480874
399.7406101,3397292.7673971574
398.9748353,3247061.1776781464
398.2137806,3087387.9940093174
397.457401,2923106.6225611344
396.7056521,2758964.1704669823
395.9584903,2599836.5573327537
395.2158722,2447686.709427144
394.4777551,2304577.0435264157
393.7440968,2171074.7042448963
393.0148555,2046764.0981555926
392.2899901,1930353.1961718788
391.56946,1821158.4787825327
390.853225,1717508.4615300288
390.1412452,1618833.83847681
389.43348169999996,1525020.1579192826
388.7298955,1435695.9530499312
388.03044839999995,1351226.2733392194
387.3351027,1272316.083438738
386.6438209,1199291.255648457
385.95656610000003,1132870.2965060358
385.2733019,1072241.5061487174
384.5939922,1017586.2549987702
383.9186014,967681.5202818277
383.2470943,921087.0952821084
382.5794362,876678.7808341214
381.9155926,833004.6882416038
381.2555296,789039.913732011
380.59921360000004,743587.2731885675
379.9466115,696583.9344221965
379.29769039999996,647969.2932966953
378.652418,598151.2255308648
378.0107622,547921.2796920486
377.37269130000004,498423.95035670104
376.73817410000004,450344.0153763676
376.1071796,405334.8257743964
375.47967719999997,363595.59931158414
374.8556368,325978.73672004143
374.2350283,292721.0880960888
373.6178223,263907.15333020466
373.0039896,239251.4375568959
372.3935012,218387.9077239374
371.78632860000005,200952.98968162067
371.1824436,186287.22893324489
370.5818182,173995.1863965714
369.98442489999996,163563.86922878766
369.39023629999997,154537.61945745553
368.7992255,146567.24854661684
368.2113658,139384.20245766806
367.6266307,132831.87963751383
367.0449943,126684.76779266149
366.4664305,120941.05908587074
365.89091410000003,115455.6673787498
365.3184196,110222.44818876391
364.7489221,105322.81726012733
364.18239689999996,100702.23571199644
363.61881960000005,96327.46040585118
363.058166,92263.26927199724
362.50041219999997,88464.29702195701
361.94553460000003,84917.69596346178
361.3935098,81557.80069427173
360.8443147,78344.17448238183
360.29792630000003,75230.2834953066
359.754322,72187.17202416032
359.2134795,69190.5398946279
358.6753765,66268.14310323431
358.1399912,63361.26796799304
357.6073018,60528.13659824585
357.077287,57696.708229172946
356.5499253,54911.13566348749
356.025196,52136.396417059295
355.50307799999996,49502.44179947262
354.983551,46882.83093963184
354.4665945,44369.581097104514
353.95218839999995,41942.08785233598
353.4403127,39575.580919796266
352.9309478,37308.057069265335
352.42407410000004,35221.17103650209
351.9196722,33307.282490997815
351.4177232,31542.864928988536
350.91820789999997,29926.86898800416
350.4211078,28410.837702525216
349.9264043,27021.951998125824
349.434079,25757.34679445484
348.9441137,24619.3835768478
348.45649060000005,23529.943957082844
347.97119169999996,22457.439028284298
347.48819960000003,21418.9142117239
347.0074967,20420.267118813877
346.5290657,19446.057576035306
346.0528897,18460.788977417036
345.5789517,17480.25877777191
345.1072349,16482.40622620359
344.6377228,15466.019264372906
344.17039889999995,14433.400747373382
343.70524710000007,13392.263396984363
343.24225110000003,12368.983062003315
342.7813952,11352.73002224893
342.32266339999995,10385.260312865608
341.8660403,9492.105442126489
341.4115102,8690.162165207892
340.959058,7974.611044643209
340.5086685,7333.3669478912625
340.06032660000005,6777.113934720595
339.6140175,6269.652561392338
339.1697264,5818.214122959129
338.7274388,5392.0447362756895
338.28714019999995,4974.348725478079
337.8488164,4574.003305667627
337.41245310000005,4188.1493012369065
336.9780363,3809.548912142207
336.5455522,3452.0805157950535
336.114987,3111.387430672069
335.686327,2820.2089101452116
335.2595588,2553.693454496948
334.834669,2317.4179459489137
334.4116443,2121.6906516907347
333.9904716,1943.9203799430795
333.57113799999996,1784.9476196984665
333.1536305,1646.0330764470284
332.73793639999997,1508.936016765752
332.32404310000004,1368.5353723755545
331.91193799999996,1226.52183364818
331.5016088,1074.436787959293
331.0930432,917.2084903808267
330.6862289,770.0205732980469
330.281154,613.1190540870234
329.8778065,461.33437538748785
329.47617460000004,334.7624967599911
329.07624649999997,235.4691329317756
328.6780106,153.36226173220226
328.2814555,94.13753300071049
327.88656960000003,48.165416840996116
327.4933418,22.190955097150052
327.1017607,10.094255908269169
326.7118154,2.666619350569169
326.32349480000005,-1.2183013213442493
325.93678789999996,-0.32141470192738664
325.5516841,2.502619988364612
325.16817260000005,0.4124470712270447
324.7862428,2.9442887928511228
324.40588419999995,0.3330181422817314
324.0270864,4.527045063495719
323.649839,-0.0117556927878834
323.2741319,-1.630530768803974
322.8999548,0.8275164407012705
322.5272977,0.3468782627423361
322.1561508,1.5456238564619964
321.786504,0.17248737729436214
321.4183476,-0.3341825808158099
321.0516719,-2.268152724081783
320.6864673,-0.8159889045234341
320.3227243,-1.620773266774466
319.96043330000003,0.8769631285222894
319.5995851,-2.9499522708189936
319.2401704,-1.0065662565593592
318.8821799,0.3080768872038626
318.5256045,0.4256550517987439
318.1704352,2.4381786046634444
317.8166631,-4.388236764132213
317.4642791,-0.5834545930501988
317.1132746,-0.10924041282058056
316.76364069999994,-4.2040218956950035
316.4153688,-4.0759561361317855
316.06845039999996,1.8998510409319176
315.72287689999996,-2.6908518646011053
315.37863980000003,1.8348231607321672
315.0357308,-0.0840767423432196
314.6941415,-1.1615413827999244
314.3538639,2.639759223070617
314.0148896,-2.038423527096793
313.6772106,3.0574752279448068
313.3408189,4.0087374822608535
313.00570639999995,-0.15684005216994024
312.67186549999997,1.438577306302118
312.33928810000003,-1.9909890548056857
312.0079665,4.112884157546444
311.6778931,-1.2577753595122176
311.34906010000003,-1.4510537646345285
311.0214601,0.3414958666471628
310.6950856,2.1370693831343592
310.369929,-1.3978421578573044
310.04598300000004,-4.253241453985292
309.7232403,4.140896568770423
309.4016935,-2.0707963782514263
309.0813356,-2.4104558319086067
308.7621594,-0.0896069817983155
308.4441577,1.5147052658348823
308.1273236,-1.1256455265064045
307.8116501,0.665966134442982
307.49713019999996,-0.21114980979708375
307.18375710000004,-0.5237605423331777
306.871524,4.7987962348695845
306.5604242,-6.8481347678107385
306.2504509,-0.8604385248249181
