wave,flux
1817.164934,-8.503569375812695
1790.1022050000001,2.6842914001470426
1763.812741,5.206579680138644
1738.2646949999998,12.385037101534865
1713.427949,108.87746183488771
1689.273995,540.410264287145
1665.7758310000002,1508.9835914466378
1642.907862,3148.876429973141
1620.64581,5408.525351667856
1598.9666300000001,8518.099757444425
1577.8484310000001,12533.22188982632
1557.270407,17421.512736494937
1537.212767,23194.06133781607
1517.65668,29506.350815796017
1498.5842089999999,35876.30954190759
1479.978265,42262.91227559464
1461.822555,48692.249573940215
1444.101535,54910.81558665174
1426.800368,60875.6926973834
1409.904887,66466.53512944936
1393.401553,71768.44829665544
1377.2774220000001,76882.38010817232
1361.520115,81925.32438965808
1346.117782,86946.99476577649
1331.059081,91890.36960956367
1316.3331449999998,96849.40775447627
1301.92956,101949.84471659512
1287.838342,106869.55310672744
1274.049912,111915.5140115942
1260.5550779999999,116908.42460582255
1247.345017,121972.98093261766
1234.4112519999999,127031.5843331362
1221.74564,132124.60420050446
1209.340352,137270.57852725196
1197.187859,142271.5924255502
1185.28092,147245.215420629
1173.612564,152334.25507795796
1162.1760800000002,157359.61826556493
1150.9650060000001,162137.10459117187
1139.973115,167069.2420377142
1129.194406,171844.3991292913
1118.623093,176578.33937019575
1108.253594,181413.13115197324
1098.0805269999998,186277.2978166516
1088.098695,191094.93140044593
1078.303081,195966.51709058427
1068.688841,201066.8908908288
1059.251295,206265.59207552683
1049.9859199999999,212004.43929137714
1040.8883449999998,217998.28412119445
1031.9543429999999,224890.14450740308
1023.1798259999999,232770.63885505355
1014.5608390000001,241066.80859911023
1006.0935529999999,250741.48355063
997.774265,261186.36446735886
989.5993858999999,272571.85289341264
981.5654412999999,284367.5087835539
973.6690651,296770.3071389155
965.9069952,309313.7551315286
958.2760697000001,321906.0570380498
950.7732231000001,334139.53359386715
943.3954827,346118.5986599371
936.1399648,357102.3497781725
929.0038716,367978.63412296586
921.9844879000001,378035.89428069175
915.0791782,387706.566402798
908.2853836000002,396922.97701004153
901.6006193,406196.57739439263
895.0224714,414783.979348325
888.548595,425139.77046812425
882.1767113,435592.3244887122
875.9046055,448423.69917383604
869.7301242999998,462546.7888879553
863.6511742999999,479267.40608459146
857.6657193,499668.22106606286
851.7717787,523466.8023346353
845.9674256000001,550495.1894524185
840.2507849,583327.858795289
834.6200316000001,620874.7716027179
829.0733892000001,665256.6549222058
823.6091279,716629.7331964351
818.2255633999999,771658.7672716072
812.9210552000001,833672.3239575361
807.694005,901435.0470303522
802.5428559,972014.018025993
797.4660904,1049730.5102797358
792.4622299,1127535.6852592223
787.5298327,1214152.4201320957
782.6674933999999,1310477.2293863893
777.8738417999999,1418784.6026303715
773.1475413,1547983.833860447
768.4872882999999,1705319.941007679
763.8918112000001,1904361.365302045
759.3598692,2146028.5986635475
754.8902515999999,2435194.652543924
750.4817767999999,2777264.1791018103
746.1332914,3153956.246149151
741.8436694000001,3559544.063225267
737.6118116,3974443.817840138
733.4366444,4384714.543921975
729.3171195,4770335.5865630135
725.2522127999999,5114420.498930386
721.2409241,5399894.257051365
717.282276,5619891.596933232
713.3753136,5787392.450942936
709.5191037000001,5906815.644456875
705.7127343,5977320.777640436
701.9553139,6016422.357676966
698.2459709,6036199.238763946
694.5838534,6039473.8349387115
690.9681281000001,6042020.581426756
687.3979803,6041929.602560571
683.8726131,6043836.275860238
680.3912472999999,6039251.347888027
676.9531202000001,6040004.180462968
673.557486,6043437.7773503475
670.2036149,6040653.684819332
666.8907926,6038838.3835208975
663.6183202999999,6042272.9801513385
660.3855139,6042639.321743228
657.1917038,6041517.879097737
654.0362346,6041308.31759537
650.9184646000001,6039842.165076586
647.8377654,6041838.463197488
644.7935217999999,6040995.552656543
641.7851312999999,6040830.191646283
638.8120038,6040997.02210809
635.8735614,6042409.274140079
632.9692378999999,6040471.68436018
630.0984786,6041971.930642722
627.2607402000001,6042296.5891333325
624.4554901,6040697.463263652
621.6822068,6041773.330814161
618.940379,6041840.99359912
616.2295054,6041081.192569188
613.549095,6041514.261555873
610.8986664,6041469.283437226
608.2777476,6041175.84971683
605.6858758999999,6041573.210455311
603.1225977000001,6041554.429913527
600.5874682,6041528.106324933
598.0800512,6041901.138270487
595.5999188999999,6041381.984621316
593.1466518,6041669.326392963
590.7198384999999,6041695.179590053
588.3190752,6041480.102787512
585.943966,6041438.023518332
583.5941226,6041346.66734105
581.2691637,6041223.482516508
578.9687155,6041316.926232706
576.692411,6041325.4972169995
574.4398902,6040949.734468065
572.2107997,6041413.5464935275
570.0047927,6041241.607358521
567.8215287,6041638.800867712
565.6606737000001,6041253.487288753
563.5218996,6041316.703893008
561.4048845,6041458.37269133
559.3093121,6041382.679260209
557.2348721,6041411.528771628
555.1812597,6041646.716653355
553.1481756000001,6041259.910654851
551.1353259,6041228.2985094525
549.1424218999999,6041526.62555288
547.1691801,6041171.4652347425
545.2153222000001,6041043.685533895
543.2805745000001,6041310.887040095
541.3646685,6040924.140069371
539.46734,6041402.172166059
537.5883299,6041087.235371776
535.7273833,6041465.05176005
533.8842498,6041134.465394415
532.0586836,6041920.573188359
530.2504428000001,6041462.019529671
528.45929,6041461.227728854
526.6849915,6041032.410930208
524.927318,6041464.756136096
523.186044,6041644.606727975
521.4609475999999,6041778.14491317
519.7518110000001,6041177.59440833
518.0584200000001,6041131.319157566
516.3805639,6041682.187547129
514.7180356,6041231.477217273
513.0706316000001,6041548.025206893
511.43815149999995,6041661.8585172165
509.82039860000003,6041271.921332607
508.2171791999999,6041444.611554963
506.628303,6041477.631637116
505.05358269999994,6041332.127107902
503.4928341,6041459.662051695
501.9458762,6041271.54819966
500.41253059999997,6041573.181735266
498.8926222,6041444.65839552
497.3859785,6041346.43835991
495.89242989999997,6041428.9943735
494.4118094,6041217.746528754
492.943953,6041491.0055836635
491.488699,6041720.850984999
490.04588839999997,6041145.1162506975
488.6153648,6041275.773688981
487.19697429999997,6041803.712671479
485.7905654,6041370.686877998
484.39598889999996,6041287.574271406
483.01309800000007,6041345.853059256
481.64174840000004,6041454.618465594
480.28179789999996,6041563.3051119
478.93310639999993,6041401.942914228
477.59553619999997,6041404.198858124
476.2689517,6041223.943317615
474.9532192,6041083.363929815
473.6482074,6041459.7887307
472.35378679999997,6041536.9003197625
471.06982989999995,6041203.780382248
469.79621110000005,6041275.575444845
468.53280700000005,6041645.235330014
467.2794956999999,6041387.873830387
466.0361575,6041430.773285192
464.80267410000005,6041747.257452503
463.5789295,6041110.431752471
462.364809,6036256.384819248
461.1601998,6022905.992344278
459.9649909,5997809.6390891215
458.7790727,5960457.303537774
457.6023374,5909749.7746959925
456.4346788,5843724.77391573
455.2759921,5763190.891991973
454.12617439999997,5668471.6675505135
452.9851239,5568881.4114169665
451.85274060000006,5470372.684653139
450.7289258,5377193.301680928
449.6135822,5292760.845214602
448.5066141,5219056.16113562
447.407927,5154319.773780643
446.317428,5099944.419840863
445.23502520000005,5052870.381135152
444.1606283,5009437.990663967
443.0941482,4967041.887580247
442.03549699999996,4922316.032176044
440.9845882,4875239.654655955
439.9413364,4825728.219840649
438.9056575,4775078.493713707
437.87746860000004,4724204.800838696
436.85668780000003,4672793.262907294
435.8432345,4620186.774796034
434.83702930000004,4566910.434838646
433.83799369999997,4511270.187844237
432.84605039999997,4450874.073981155
431.8611232,4385942.675908263
430.8831369,4315990.078528739
429.9120175,4239155.915354036
428.94769169999995,4158237.7109250943
427.9900874,4074689.1827553865
427.03913370000004,3991006.222910861
426.0947602,3908647.0818768283
425.1568978,3830701.949196135
424.22547829999996,3756926.555780634
423.3004343,3688835.7052102927
422.3816994,3624517.082821021
421.4692081,3562364.6381690614
420.56289569999996,3499790.6925639682
419.66269850000003,3434086.9629922668
418.7685535,3361971.9304289226
417.8803987,3281431.1939590983
416.9981727,3190618.2627330604
416.12181519999996,3090276.414775888
415.25126639999996,2979949.752452334
414.38646760000006,2862087.6283851117
413.5273605,2738985.246812073
412.673888,2614169.188428843
411.8259934,2490852.944799955
410.9836208,2372754.789970141
410.14671519999996,2262082.4303082814
409.3152221,2161654.275245214
408.48908789999996,2073238.07302568
407.66825960000006,1996893.8912637308
406.8526847,1932949.624505865
406.0423117,1880508.7565056891
405.2370896,1838146.97442998
404.43696800000004,1803648.9677043904
403.64189730000004,1774963.1560331613
402.8518283,1749060.7406777383
402.0667126,1723968.7952626215
401.28650239999996,1697464.4418813945
400.5111505,1667535.232696689
399.7406101,1633057.1295152572
398.9748353,1592947.132776604
398.2137806,1547103.1899124142
397.457401,1495716.9286061986
396.7056521,1439551.1695833225
395.9584903,1379645.0976969986
395.2158722,1317652.450363936
394.4777551,1254770.4730033905
393.7440968,1192556.890069869
393.0148555,1132327.1714334318
392.2899901,1075017.3355044294
391.56946,1021207.2640916696
390.853225,971622.541799062
390.1412452,926117.9513742905
389.43348169999996,884747.4867408981
388.7298955,846773.241492561
388.03044839999995,811820.8713780355
387.3351027,779271.7630115552
386.6438209,748519.8174046745
385.95656610000003,718857.3274005494
385.2733019,689682.1154017783
384.5939922,660348.8099588046
383.9186014,630279.4337854346
383.2470943,599519.5265418629
382.5794362,567501.2365338631
381.9155926,534287.0229233268
381.2555296,499796.51704121544
380.59921360000004,464288.4562361717
379.9466115,428286.0315844984
379.29769039999996,392165.13755907275
378.652418,356428.01314267295
378.0107622,321862.0837654777
377.37269130000004,288866.12762109376
376.73817410000004,258102.7680522639
376.1071796,229782.9774378191
375.47967719999997,204259.07391985477
374.8556368,181728.97123738978
374.2350283,162113.87046179385
373.6178223,145271.12332596464
373.0039896,131012.12944729494
372.3935012,119072.75843923529
371.78632860000005,109058.47030179008
371.1824436,100796.44175269346
370.5818182,93844.61126701748
369.98442489999996,87945.01824444559
369.39023629999997,82870.13532147215
368.7992255,78440.25016501438
368.2113658,74511.79099082787
367.6266307,70952.23797377392
367.0449943,67727.62681610497
366.4664305,64712.910618358226
365.89091410000003,61917.20955122069
365.3184196,59312.75858891902
364.7489221,56860.31532505509
364.18239689999996,54559.444630969236
363.61881960000005,52375.751414531864
363.058166,50327.76457877354
362.50041219999997,48335.04024623081
361.94553460000003,46418.402349524404
361.3935098,44521.63605529399
360.8443147,42689.73712183601
360.29792630000003,40939.67996642475
359.754322,39212.7155518322
359.2134795,37521.95277200186
358.6753765,35888.393227588764
358.1399912,34303.731017833365
357.6073018,32787.81759135575
357.077287,31368.977170090868
356.5499253,29956.25649697184
356.025196,28578.93625161196
355.50307799999996,27256.93372729888
354.983551,25952.012408593408
354.4665945,24661.16810146599
353.95218839999995,23407.224636642222
353.4403127,22152.826485711234
352.9309478,20919.53864862664
352.42407410000004,19725.69735864696
351.9196722,18579.281467338933
351.4177232,17489.23799559692
350.91820789999997,16469.810993717674
350.4211078,15518.966828069662
349.9264043,14629.13249109991
349.434079,13790.016170222763
348.9441137,13036.03010839224
348.45649060000005,12352.248481779669
347.97119169999996,11720.629205001629
347.48819960000003,11142.360970003101
347.0074967,10580.404582688168
346.5290657,10064.448385630129
346.0528897,9577.122700388296
345.5789517,9123.467852090718
345.1072349,8681.458281864532
344.6377228,8251.527493884794
344.17039889999995,7820.512892400784
343.70524710000007,7383.082072546134
343.24225110000003,6963.514056597002
342.7813952,6537.759471352812
342.32266339999995,6119.8962122082885
341.8660403,5709.220469036354
341.4115102,5306.032307528794
340.959058,4901.56687368528
340.5086685,4516.63397328474
340.06032660000005,4168.993202802286
339.6140175,3850.3907680217058
339.1697264,3550.2629019717792
338.7274388,3283.1713041290345
338.28714019999995,3040.493105099564
337.8488164,2808.3748238305443
337.41245310000005,2606.6057758395104
336.9780363,2424.9435234640678
336.5455522,2256.969075255295
336.114987,2097.2840535752034
335.686327,1937.819447073903
335.2595588,1788.4072321781127
334.834669,1643.870424182768
334.4116443,1499.5795973646075
333.9904716,1360.4253037393291
333.57113799999996,1231.0471947925828
333.1536305,1103.6378529798494
332.73793639999997,978.38725211105
332.32404310000004,857.5258084195729
331.91193799999996,736.3701146810974
331.5016088,620.2412253022394
331.0930432,518.219060747103
330.6862289,421.70927954022034
330.281154,329.6351805672105
329.8778065,249.44461666911425
329.47617460000004,184.55071440113338
329.07624649999997,128.27946467113978
328.6780106,90.33871471375521
328.2814555,52.23863258020006
327.88656960000003,35.2421876318391
327.4933418,24.611188586330236
327.1017607,5.994919131346803
326.7118154,6.984355196837134
326.32349480000005,3.800883632723136
325.93678789999996,-1.6663054050296433
325.5516841,-1.8643788617661083
325.16817260000005,-0.8932647695143037
324.7862428,-0.18240806096044745
324.40588419999995,-2.82968522765726
324.0270864,1.8927472928733988
323.649839,2.676687037640453
323.2741319,-1.2368677860423305
322.8999548,1.6985340899004968
322.5272977,1.8531411531241984
322.1561508,-5.979689114565526
321.786504,0.0883540094532464
321.4183476,-0.3419985767463183
321.0516719,1.0616535697467908
320.6864673,1.2507360088627195
320.3227243,-1.8761757077191703
319.96043330000003,-0.9096907497284424
319.5995851,-2.0390850699862844
319.2401704,-0.3114440096190517
318.8821799,-2.4312102712434758
318.5256045,-4.191752163813547
318.1704352,-2.888855773229826
317.8166631,0.8499234582680382
317.4642791,1.7237526987492884
317.1132746,0.5281965333205839
316.76364069999994,-1.1540995235291969
316.4153688,-1.123077124526273
316.06845039999996,0.3959065235367397
315.72287689999996,0.7249007290001563
315.37863980000003,-3.2385071363493587
315.0357308,-0.2163316720361654
314.6941415,1.6701412382961054
314.3538639,2.1967138990013875
314.0148896,2.7173880139817213
313.6772106,3.0172196074956728
313.3408189,-3.571163854891575
313.00570639999995,-1.2684204837398805
312.67186549999997,-2.634282655752025
312.33928810000003,0.4015691876226567
312.0079665,0.8506298464419001
311.6778931,-3.67534564649672
311.34906010000003,0.8706859471326496
311.0214601,0.6460884422700955
310.6950856,-3.2205433684938893
310.369929,-3.668673313644247
310.04598300000004,0.4833824841930872
309.7232403,3.1754850475613434
309.4016935,2.3158539458386422
309.0813356,1.1812734147152752
308.7621594,3.9294659831247167
308.4441577,-1.795848822644036
308.1273236,1.7461359951284632
307.8116501,0.4761894153034757
307.49713019999996,-1.141374328402599
307.18375710000004,-5.099526878558427
306.871524,2.0237019208534317
306.5604242,1.8315122393803358
306.2504509,-1.4990675761177068
