wave,flux
1817.164934,0.694187637453457
1790.1022050000001,0.8894991520717486
1763.812741,4.708431662737118
1738.2646949999998,36.56109996527038
1713.427949,90.04349410616895
1689.273995,470.1206013272094
1665.7758310000002,1352.827543564608
1642.907862,2848.365034504212
1620.64581,5005.21617767644
1598.9666300000001,7750.375793707669
1577.8484310000001,11229.688029835403
1557.270407,15407.768110819428
1537.212767,20307.34684891604
1517.65668,25512.41200883959
1498.5842089999999,30576.948818886634
1479.978265,35442.32055963694
1461.822555,40050.75428426452
1444.101535,44484.50041200528
1426.800368,48558.699460076066
1409.904887,52345.173769960784
1393.401553,55796.04857099464
1377.2774220000001,59099.200919505565
1361.520115,62393.93605292236
1346.117782,65755.46633308165
1331.059081,69228.37117781574
1316.3331449999998,72694.18249557725
1301.92956,76179.45175200404
1287.838342,79745.5463967047
1274.049912,83179.97039432699
1260.5550779999999,86767.7627943026
1247.345017,90312.10538492187
1234.4112519999999,93820.40731392633
1221.74564,97330.56104053905
1209.340352,100864.14540954896
1197.187859,104346.99425416796
1185.28092,107881.27688117255
1173.612564,111493.89328064006
1162.1760800000002,115177.64058007179
1150.9650060000001,118749.1565012454
1139.973115,122487.18344516662
1129.194406,126335.02537306401
1118.623093,130170.87101120768
1108.253594,133976.06352533613
1098.0805269999998,137847.02486110956
1088.098695,141707.60478505926
1078.303081,145742.95699771226
1068.688841,149710.94357854757
1059.251295,154007.89831438768
1049.9859199999999,158814.74384388627
1040.8883449999998,164110.62831275925
1031.9543429999999,169903.94509953613
1023.1798259999999,176617.6842332414
1014.5608390000001,183916.18592905728
1006.0935529999999,192290.9678744112
997.774265,201168.8550978807
989.5993858999999,210601.20651345738
981.5654412999999,220855.57776398215
973.6690651,231038.88930529475
965.9069952,241336.59089914462
958.2760697000001,251529.42354096484
950.7732231000001,261123.61039146985
943.3954827,270625.33268483385
936.1399648,279477.2163131843
929.0038716,287743.80943961896
921.9844879000001,295061.2719165989
915.0791782,302415.52691510244
908.2853836000002,309090.4136480692
901.6006193,316087.8472866771
895.0224714,322938.96343505697
888.548595,330698.9260595117
882.1767113,339537.2227651373
875.9046055,349678.1143575865
869.7301242999998,361371.4399745495
863.6511742999999,375093.53727023007
857.6657193,391876.2638312
851.7717787,410659.5605636851
845.9674256000001,434190.0730776744
840.2507849,462285.65307577327
834.6200316000001,494025.17776695616
829.0733892000001,532466.9517274185
823.6091279,577065.7301664856
818.2255633999999,625495.7943899571
812.9210552000001,679992.5360441239
807.694005,737678.0136361037
802.5428559,798168.623766528
797.4660904,862684.8361974396
792.4622299,925110.0040862224
787.5298327,994832.3039704992
782.6674933999999,1070461.3687588202
777.8738417999999,1158277.581816625
773.1475413,1258968.4302484682
768.4872882999999,1392035.2271551515
763.8918112000001,1553312.7790009824
759.3598692,1751984.7246886706
754.8902515999999,1995794.69247424
750.4817767999999,2280938.6674960963
746.1332914,2603639.1278516413
741.8436694000001,2958164.946774933
737.6118116,3335897.79941098
733.4366444,3718825.751621345
729.3171195,4096137.563799895
725.2522127999999,4450544.484767589
721.2409241,4781303.313224765
717.282276,5069371.161038102
713.3753136,5312735.697511025
709.5191037000001,5512866.242306839
705.7127343,5675648.736495132
701.9553139,5799056.54065339
698.2459709,5887370.028943652
694.5838534,5948903.546802143
690.9681281000001,5989383.4049928
687.3979803,6013623.232636903
683.8726131,6031669.418220681
680.3912472999999,6039290.950988505
676.9531202000001,6043919.421987083
673.557486,6043145.733396373
670.2036149,6040867.838608127
666.8907926,6043301.542719613
663.6183202999999,6039546.781552598
660.3855139,6039349.661522965
657.1917038,6041460.728174129
654.0362346,6039716.4411131125
650.9184646000001,6040356.571332253
647.8377654,6041358.319351053
644.7935217999999,6042588.583415357
641.7851312999999,6041082.303664093
638.8120038,6040499.985594756
635.8735614,6042276.381319952
632.9692378999999,6042634.6555605875
630.0984786,6041264.681136377
627.2607402000001,6041423.560104053
624.4554901,6039903.04085358
621.6822068,6042056.328871123
618.940379,6041616.658095005
616.2295054,6041862.914029395
613.549095,6041488.4918332575
610.8986664,6041324.541014558
608.2777476,6041339.05318646
605.6858758999999,6041364.7409277065
603.1225977000001,6041384.1659245435
600.5874682,6041172.557972456
598.0800512,6041694.140410273
595.5999188999999,6041099.496409968
593.1466518,6041190.965921142
590.7198384999999,6041018.823577117
588.3190752,6041193.494228873
585.943966,6041389.705919213
583.5941226,6041588.409256669
581.2691637,6041002.790901173
578.9687155,6041497.851614728
576.692411,6041267.603882251
574.4398902,6041083.576823965
572.2107997,6041212.006431264
570.0047927,6041101.524377861
567.8215287,6040913.805787972
565.6606737000001,6041397.812853458
563.5218996,6041394.60805205
561.4048845,6041387.514100287
559.3093121,6040925.3945071185
557.2348721,6041396.491941837
555.1812597,6041706.470280269
553.1481756000001,6041490.228697968
551.1353259,6041131.507297187
549.1424218999999,6041436.22770634
547.1691801,6041712.388772051
545.2153222000001,6041380.94436951
543.2805745000001,6041538.895251015
541.3646685,6041848.499250542
539.46734,6041189.6034714235
537.5883299,6041434.633352319
535.7273833,6041635.364739452
533.8842498,6041579.295769095
532.0586836,6041230.10356399
530.2504428000001,6041575.372013068
528.45929,6041420.841193018
526.6849915,6041501.936830862
524.927318,6041246.514434695
523.186044,6041581.659350152
521.4609475999999,6041221.414005358
519.7518110000001,6041382.3949022
518.0584200000001,6041545.448507853
516.3805639,6041345.925936046
514.7180356,6041244.638217177
513.0706316000001,6041354.888949057
511.43815149999995,6041321.858876018
509.82039860000003,6040807.54298166
508.2171791999999,6041365.156569829
506.628303,6041373.214179675
505.05358269999994,6041513.977892845
503.4928341,6041194.037531858
501.9458762,6041275.0737702465
500.41253059999997,6041422.438591631
498.8926222,6041443.375707991
497.3859785,6041941.19483004
495.89242989999997,6041332.529038912
494.4118094,6041307.205029538
492.943953,6041215.745786635
491.488699,6041401.487102724
490.04588839999997,6041112.936844298
488.6153648,6041397.085928951
487.19697429999997,6041242.341098502
485.7905654,6041331.906487533
484.39598889999996,6041496.035263369
483.01309800000007,6041523.5522122085
481.64174840000004,6040932.809353531
480.28179789999996,6041415.317701248
478.93310639999993,6041395.647710582
477.59553619999997,6041158.543471185
476.2689517,6041103.161997944
474.9532192,6041865.203336843
473.6482074,6041302.43721039
472.35378679999997,6041521.365293927
471.06982989999995,6041258.483909022
469.79621110000005,6041411.502390763
468.53280700000005,6041132.753858537
467.2794956999999,6041444.215627933
466.0361575,6041659.212328419
464.80267410000005,6041290.026778658
463.5789295,6035652.40411892
462.364809,6023373.018924504
461.1601998,6002446.052321187
459.9649909,5969602.849310705
458.7790727,5925169.294453748
457.6023374,5868851.937416888
456.4346788,5797817.464868184
455.2759921,5713762.160786149
454.12617439999997,5622249.016407515
452.9851239,5525925.957918087
451.85274060000006,5427473.212084884
450.7289258,5327628.277163703
449.6135822,5224228.662665224
448.5066141,5117960.350139143
447.407927,5006388.922115238
446.317428,4888347.1789125465
445.23502520000005,4761263.608333835
444.1606283,4624942.155392955
443.0941482,4480581.414927924
442.03549699999996,4331523.73075845
440.9845882,4182362.441475143
439.9413364,4038062.1729926425
438.9056575,3903485.992876359
437.87746860000004,3782469.99142836
436.85668780000003,3677014.8371676914
435.8432345,3588180.1042349483
434.83702930000004,3514584.988731197
433.83799369999997,3453069.1664436636
432.84605039999997,3400843.676873945
431.8611232,3353414.020965978
430.8831369,3307398.4636021974
429.9120175,3259328.22609244
428.94769169999995,3208145.9484711494
427.9900874,3152876.0977302026
427.03913370000004,3093859.709266828
426.0947602,3034334.144713796
425.1568978,2976015.9157285257
424.22547829999996,2921189.904915752
423.3004343,2873206.000583002
422.3816994,2833253.91843437
421.4692081,2802113.982687259
420.56289569999996,2779674.321308224
419.66269850000003,2763888.456613515
418.7685535,2752798.19637226
417.8803987,2743507.777861719
416.9981727,2732379.596938964
416.12181519999996,2716110.73613847
415.25126639999996,2691810.776557384
414.38646760000006,2657529.742999999
413.5273605,2611053.3984981496
412.673888,2552507.104088996
411.8259934,2481849.562819529
410.9836208,2400225.92488382
410.14671519999996,2309959.2218077253
409.3152221,2213408.004198294
408.48908789999996,2112939.392801152
407.66825960000006,2011593.093578077
406.8526847,1912340.4112347327
406.0423117,1816358.457465697
405.2370896,1726113.4651203712
404.43696800000004,1642469.0414591206
403.64189730000004,1565687.8708394275
402.8518283,1495425.4449638652
402.0667126,1431096.3634350288
401.28650239999996,1371957.5997884541
400.5111505,1316766.1248345554
399.7406101,1263775.6804451984
398.9748353,1212529.896481683
398.2137806,1162563.558770062
397.457401,1113565.8719422438
396.7056521,1065806.1851337259
395.9584903,1019731.3685117172
395.2158722,975834.6384562652
394.4777551,934426.977094975
393.7440968,897244.7081459912
393.0148555,863923.3452544181
392.2899901,834218.5672669329
391.56946,807881.6317512747
390.853225,784127.904851107
390.1412452,762199.8575458055
389.43348169999996,741068.4722129544
388.7298955,720203.6971283692
388.03044839999995,698142.1391354224
387.3351027,674617.3339134498
386.6438209,649668.1681154608
385.95656610000003,622976.3219697627
385.2733019,594694.3940032626
384.5939922,565121.0999011969
383.9186014,534346.8966057367
383.2470943,502626.26355508104
382.5794362,470388.15425351716
381.9155926,437812.0273384836
381.2555296,405142.57060180313
380.59921360000004,372660.3153093949
379.9466115,340707.77492894995
379.29769039999996,309717.4211959412
378.652418,279849.8827739808
378.0107622,251519.20585002212
377.37269130000004,225136.94331975817
376.73817410000004,200769.97767462887
376.1071796,178723.27976720844
375.47967719999997,159066.96854639653
374.8556368,141801.37640663458
374.2350283,126815.37214292858
373.6178223,113979.27254204352
373.0039896,103076.8061358491
372.3935012,93827.50780370749
371.78632860000005,86035.48996028455
371.1824436,79418.58040861961
370.5818182,73748.5152896441
369.98442489999996,68889.28173166384
369.39023629999997,64607.41955474095
368.7992255,60829.33234047003
368.2113658,57453.74424354378
367.6266307,54450.685244184286
367.0449943,51740.66748470514
366.4664305,49310.2869227129
365.89091410000003,47116.57006805474
365.3184196,45106.0009248138
364.7489221,43327.7233594087
364.18239689999996,41689.15416824308
363.61881960000005,40172.31050241373
363.058166,38745.0129617392
362.50041219999997,37396.068410306
361.94553460000003,36108.7492781792
361.3935098,34833.862407557586
360.8443147,33611.133689421906
360.29792630000003,32348.18698428053
359.754322,31108.23481456067
359.2134795,29883.18388810056
358.6753765,28696.487405854845
358.1399912,27514.380782901626
357.6073018,26363.53915303993
357.077287,25231.961745385517
356.5499253,24150.195792776874
356.025196,23099.996901242965
355.50307799999996,22086.06572549314
354.983551,21086.607145352362
354.4665945,20126.683169822903
353.95218839999995,19186.56769854081
353.4403127,18242.147385151675
352.9309478,17329.152145139513
352.42407410000004,16414.87433986074
351.9196722,15521.962258545589
351.4177232,14662.902333875
350.91820789999997,13822.721120265956
350.4211078,13006.071205236238
349.9264043,12212.967177871838
349.434079,11445.894062477024
348.9441137,10717.587828487716
348.45649060000005,10032.215386056034
347.97119169999996,9370.34604371627
347.48819960000003,8759.747836286326
347.0074967,8195.813586928361
346.5290657,7676.250615564133
346.0528897,7217.939475977266
345.5789517,6792.270260988497
345.1072349,6408.6135454197465
344.6377228,6065.060303117689
344.17039889999995,5738.714395582922
343.70524710000007,5435.002448343846
343.24225110000003,5134.101483676587
342.7813952,4836.670361980745
342.32266339999995,4550.54104465682
341.8660403,4267.310083010592
341.4115102,3995.868712211767
340.959058,3737.850641809669
340.5086685,3493.7952244303838
340.06032660000005,3263.2745871399093
339.6140175,3063.1776526698195
339.1697264,2882.897208227934
338.7274388,2711.275517043696
338.28714019999995,2554.376615367388
337.8488164,2402.720169634131
337.41245310000005,2254.223624400014
336.9780363,2107.536143420152
336.5455522,1956.9951643919892
336.114987,1813.224715282874
335.686327,1667.3826701570874
335.2595588,1511.7156025007266
334.834669,1365.4293231612644
334.4116443,1218.3577346210468
333.9904716,1086.9869807266439
333.57113799999996,962.0848878596116
333.1536305,850.3124100211509
332.73793639999997,734.7111674382037
332.32404310000004,630.6788820869302
331.91193799999996,539.5586144139942
331.5016088,450.27143810075233
331.0930432,373.6696923351827
330.6862289,299.0833603219693
330.281154,236.73924381996414
329.8778065,177.74186625218914
329.47617460000004,132.72698864232663
329.07624649999997,89.41465191331316
328.6780106,63.24531055014005
328.2814555,41.40391574181029
327.88656960000003,22.519876712346953
327.4933418,12.017748788436894
327.1017607,3.174875997762576
326.7118154,-1.5529618843860995
326.32349480000005,1.0202868176828912
325.93678789999996,1.4738854508077155
325.5516841,0.9193552274506784
325.16817260000005,-0.33105881952712496
324.7862428,-1.3387168864856815
324.40588419999995,1.6303969473372395
324.0270864,1.2457310116591112
323.649839,0.7589343461049651
323.2741319,-0.514230264341912
322.8999548,-0.6947970423328148
322.5272977,-1.42028916386529
322.1561508,3.0987373358268
321.786504,-1.0852388826609285
321.4183476,1.2633998987868509
321.0516719,5.768836124132896
320.6864673,0.8754649380471611
320.3227243,4.656362871722603
319.96043330000003,1.4861476154104951
319.5995851,-2.7498637123793195
319.2401704,3.0117444874701973
318.8821799,0.2872693135487603
318.5256045,3.1340916769310607
318.1704352,-4.817176114220636
317.8166631,2.920501407805116
317.4642791,-1.2623426899369572
317.1132746,-2.5455837664688588
316.76364069999994,0.8437159498288168
316.4153688,3.9437103750493048
316.06845039999996,1.1053846233859803
315.72287689999996,1.604745813367193
315.37863980000003,2.4778100709993303
315.0357308,1.5037244762426474
314.6941415,1.8338246996084708
314.3538639,3.533712970766304
314.0148896,1.5062940303463719
313.6772106,0.6199842574071449
313.3408189,-1.87597236034905
313.00570639999995,-1.847733511930001
312.67186549999997,0.07419849117857864
312.33928810000003,1.5154906034753617
312.0079665,-1.2869574890530642
311.6778931,0.17411157234133268
311.34906010000003,1.1287611132916282
311.0214601,-1.9789058446452417
310.6950856,1.1539730232021403
310.369929,1.6478781687439417
310.04598300000004,-5.0062695839780735
309.7232403,3.7537678914207127
309.4016935,1.1887945570484288
309.0813356,1.7174416465729108
308.7621594,-1.6312575680112904
308.4441577,-1.0304897484046711
308.1273236,-1.1123715989033167
307.8116501,-1.7945793604003697
307.49713019999996,-3.5657973283372124
307.18375710000004,0.5864883873919339
306.871524,0.8635493292292026
306.5604242,0.5723244659621461
306.2504509,-0.018585865193335004
