wave,flux
1817.164934,-9.24292873232096
1790.1022050000001,1.172288451648543
1763.812741,-1.1277874815976974
1738.2646949999998,26.312293116042355
1713.427949,55.865870320927584
1689.273995,194.19138661169444
1665.7758310000002,485.7049801473349
1642.907862,1008.685561459534
1620.64581,1754.7653093222104
1598.9666300000001,2783.364308809913
1577.8484310000001,4125.368200461373
1557.270407,5801.989320385059
1537.212767,7806.005517117014
1517.65668,10113.186007323771
1498.5842089999999,12535.406979525298
1479.978265,15067.751837966644
1461.822555,17701.189325800395
1444.101535,20408.382186724764
1426.800368,23083.15213109496
1409.904887,25821.628435794482
1393.401553,28468.820706370378
1377.2774220000001,31131.926233196406
1361.520115,33819.38132891516
1346.117782,36467.14453264824
1331.059081,39193.82562236717
1316.3331449999998,41997.67136397424
1301.92956,44719.815373932135
1287.838342,47544.79554663872
1274.049912,50427.46461083021
1260.5550779999999,53297.224973752425
1247.345017,56214.98623017832
1234.4112519999999,59142.20491273196
1221.74564,62172.02669171075
1209.340352,65141.43871813016
1197.187859,68172.93366822375
1185.28092,71245.02692043745
1173.612564,74454.2089602663
1162.1760800000002,77660.43154130153
1150.9650060000001,80901.87067441769
1139.973115,84191.1704542688
1129.194406,87465.08534874022
1118.623093,90823.81901888836
1108.253594,94200.185307138
1098.0805269999998,97658.74708089027
1088.098695,101123.10720478187
1078.303081,104523.61063141869
1068.688841,108186.94484773686
1059.251295,111837.72328975146
1049.9859199999999,115723.65927559455
1040.8883449999998,119805.73158713436
1031.9543429999999,124182.824432034
1023.1798259999999,128865.60801401494
1014.5608390000001,133952.90541819786
1006.0935529999999,139304.56278571242
997.774265,145024.5970668405
989.5993858999999,151265.89858405275
981.5654412999999,157597.76429012776
973.6690651,164401.75324872806
965.9069952,171459.06569624148
958.2760697000001,178572.09375467163
950.7732231000001,185740.63329708058
943.3954827,193197.41872543824
936.1399648,200408.58918265378
929.0038716,207467.0040293952
921.9844879000001,214844.1361260568
915.0791782,221756.4852641293
908.2853836000002,228929.5510720499
901.6006193,236201.85374977195
895.0224714,243440.51727616144
888.548595,251049.33393636238
882.1767113,258927.36643531988
875.9046055,267417.4185850616
869.7301242999998,276621.3207283997
863.6511742999999,286148.08897999785
857.6657193,297140.9488621137
851.7717787,309104.27392429713
845.9674256000001,322907.5974172425
840.2507849,337873.04032610083
834.6200316000001,355213.4283420253
829.0733892000001,374487.82975678646
823.6091279,396081.68849752366
818.2255633999999,420628.6780642646
812.9210552000001,446530.2515735276
807.694005,476128.3623052146
802.5428559,507616.3026084036
797.4660904,540688.893370799
792.4622299,577415.4359914329
787.5298327,616133.3018676458
782.6674933999999,658274.2892610558
777.8738417999999,707283.828836533
773.1475413,764780.4036942909
768.4872882999999,830541.7185329173
763.8918112000001,910951.6005643648
759.3598692,1005682.830150681
754.8902515999999,1121057.1984384118
750.4817767999999,1253351.071453285
746.1332914,1410100.9421737066
741.8436694000001,1580291.7909993746
737.6118116,1768139.7985228368
733.4366444,1967644.6659384973
729.3171195,2179224.561932228
725.2522127999999,2398050.2088612043
721.2409241,2624934.7797378777
717.282276,2859376.546416121
713.3753136,3120063.9181118836
709.5191037000001,3397521.311022973
705.7127343,3691004.15854473
701.9553139,3994958.032081897
698.2459709,4309576.425081192
694.5838534,4623541.358891823
690.9681281000001,4934291.445543401
687.3979803,5217813.206105452
683.8726131,5458696.415137441
680.3912472999999,5650835.554636222
676.9531202000001,5799817.42435881
673.557486,5908450.943694548
670.2036149,5979494.862820611
666.8907926,6022867.382378437
663.6183202999999,6039151.134648702
660.3855139,6040139.5364616215
657.1917038,6042186.958016199
654.0362346,6041584.203446898
650.9184646000001,6041590.641347464
647.8377654,6042285.462860753
644.7935217999999,6042522.221952241
641.7851312999999,6041347.073103958
638.8120038,6041494.023476558
635.8735614,6040884.653668649
632.9692378999999,6041376.124836204
630.0984786,6041053.470994019
627.2607402000001,6043915.765130063
624.4554901,6043500.809005058
621.6822068,6041211.574067156
618.940379,6041535.1684858035
616.2295054,6041154.382022742
613.549095,6041828.60787032
610.8986664,6040961.724248547
608.2777476,6041455.703542813
605.6858758999999,6041539.500418368
603.1225977000001,6041222.8078795085
600.5874682,6041054.579866545
598.0800512,6041393.789355346
595.5999188999999,6041515.327346057
593.1466518,6041292.576207894
590.7198384999999,6041033.293056906
588.3190752,6041231.002959533
585.943966,6041626.733257677
583.5941226,6041669.664452855
581.2691637,6041275.464492663
578.9687155,6041355.625401608
576.692411,6041015.2091515325
574.4398902,6041446.988823848
572.2107997,6041259.30910191
570.0047927,6041427.617313206
567.8215287,6041429.472853588
565.6606737000001,6041412.521721366
563.5218996,6041225.298831804
561.4048845,6041549.645223212
559.3093121,6040973.999097189
557.2348721,6041218.7675848985
555.1812597,6040909.336895812
553.1481756000001,6041270.702940913
551.1353259,6041704.944333244
549.1424218999999,6041340.550105401
547.1691801,6041319.70393034
545.2153222000001,6041046.722776216
543.2805745000001,6041593.140895355
541.3646685,6041186.090194448
539.46734,6041570.681649158
537.5883299,6041234.276003976
535.7273833,6041190.468684915
533.8842498,6041198.01462166
532.0586836,6041263.6977155125
530.2504428000001,6041502.544090392
528.45929,6041488.142438643
526.6849915,6041059.289887875
524.927318,6041131.581266019
523.186044,6041592.947231548
521.4609475999999,6041733.50750354
519.7518110000001,6041172.06188048
518.0584200000001,6041341.939514537
516.3805639,6041064.073317435
514.7180356,6041397.449820448
513.0706316000001,6041063.43468318
511.43815149999995,6041583.742131605
509.82039860000003,6041213.733065925
508.2171791999999,6041093.646064662
506.628303,6041142.058108581
505.05358269999994,6041504.951384137
503.4928341,6041408.801584652
501.9458762,6040964.217413163
500.41253059999997,6041259.759959345
498.8926222,6041578.271785705
497.3859785,6041548.974761536
495.89242989999997,6041525.275239818
494.4118094,6041084.062384503
492.943953,6041556.792084639
491.488699,6041121.295128928
490.04588839999997,6040929.1549397325
488.6153648,6041486.83960883
487.19697429999997,6041380.589753153
485.7905654,6040965.246859962
484.39598889999996,6041371.105770118
483.01309800000007,6041539.311233949
481.64174840000004,6041617.06421255
480.28179789999996,6041054.0513301175
478.93310639999993,6041242.034217683
477.59553619999997,6041539.824369675
476.2689517,6041262.711680484
474.9532192,6041536.51679758
473.6482074,6041843.337674882
472.35378679999997,6040957.360010019
471.06982989999995,6040987.890783083
469.79621110000005,6041679.233263142
468.53280700000005,6041778.450741393
467.2794956999999,6041002.160304127
466.0361575,6041421.283753102
464.80267410000005,6041075.471936053
463.5789295,6041296.010953181
462.364809,6041751.860680207
461.1601998,6041784.593202501
459.9649909,6041511.992009953
458.7790727,6041806.736620629
457.6023374,6041468.743619476
456.4346788,6041172.335979325
455.2759921,6041093.183938462
454.12617439999997,6041816.837309202
452.9851239,6041284.485730727
451.85274060000006,6041556.067967591
450.7289258,6041439.935338892
449.6135822,6041437.522913587
448.5066141,6041553.137906381
447.407927,6041248.936500322
446.317428,6041204.101953858
445.23502520000005,6041882.384846088
444.1606283,6041253.660531917
443.0941482,6041118.011533938
442.03549699999996,6041312.5359228635
440.9845882,6041154.417873467
439.9413364,6041388.214278302
438.9056575,6041202.781597315
437.87746860000004,6041275.155480635
436.85668780000003,6041340.716121593
435.8432345,6039979.145936707
434.83702930000004,6035979.1434405325
433.83799369999997,6025661.987797903
432.84605039999997,6007753.433021609
431.8611232,5978945.407863823
430.8831369,5939018.724164691
429.9120175,5884887.369482523
428.94769169999995,5814505.04451975
427.9900874,5728253.86232595
427.03913370000004,5628998.478557028
426.0947602,5519379.768193048
425.1568978,5402371.449664477
424.22547829999996,5279332.640247181
423.3004343,5153679.926121448
422.3816994,5026714.323343163
421.4692081,4900621.60920714
420.56289569999996,4775456.3339581685
419.66269850000003,4651519.488766509
418.7685535,4526933.152093564
417.8803987,4401678.476272887
416.9981727,4274458.964272702
416.12181519999996,4145817.0355148762
415.25126639999996,4014196.973794282
414.38646760000006,3881392.259883863
413.5273605,3746472.8506240607
412.673888,3610770.6191864912
411.8259934,3475634.2729518414
410.9836208,3341329.7733278093
410.14671519999996,3209313.264110682
409.3152221,3080395.8131148475
408.48908789999996,2955179.6538131437
407.66825960000006,2834345.826575285
406.8526847,2717137.2656923486
406.0423117,2603938.312282414
405.2370896,2494709.7817135914
404.43696800000004,2388811.9054074013
403.64189730000004,2285791.5190602
402.8518283,2185747.032068677
402.0667126,2088696.1941150387
401.28650239999996,1994478.704113201
400.5111505,1902804.0471574054
399.7406101,1813365.1483636652
398.9748353,1726484.665051113
398.2137806,1641995.6046675544
397.457401,1559867.476136967
396.7056521,1479908.1955795803
395.9584903,1401714.4492974393
395.2158722,1325199.4472213848
394.4777551,1250697.133464436
393.7440968,1177984.9752695013
393.0148555,1107092.6561409687
392.2899901,1038452.8145135696
391.56946,971946.8728330908
390.853225,907784.7725497223
390.1412452,846298.6370093734
389.43348169999996,787328.151201978
388.7298955,731193.8367892555
388.03044839999995,677844.5144907057
387.3351027,627422.9367795857
386.6438209,580044.7953350599
385.95656610000003,535596.0752171646
385.2733019,493963.9730778019
384.5939922,455344.6817910224
383.9186014,419382.6865858014
383.2470943,386230.5419713285
382.5794362,355631.6034257501
381.9155926,327474.87945560506
381.2555296,301649.7089353513
380.59921360000004,277963.9514376034
379.9466115,256400.50612666013
379.29769039999996,236730.69157718716
378.652418,218919.72224845368
378.0107622,202862.43813232068
377.37269130000004,188381.124651476
376.73817410000004,175385.01823627178
376.1071796,163759.67935025538
375.47967719999997,153398.10444671573
374.8556368,144099.05122510696
374.2350283,135728.25282112564
373.6178223,128224.77053639462
373.0039896,121388.86773163045
372.3935012,115118.00265523516
371.78632860000005,109376.60925700662
371.1824436,104044.4321802177
370.5818182,99036.97080721066
369.98442489999996,94363.9818454366
369.39023629999997,89955.50110985193
368.7992255,85799.89227536847
368.2113658,81833.57220550343
367.6266307,78126.80899135144
367.0449943,74602.99463840746
366.4664305,71226.63169455568
365.89091410000003,68016.21670320937
365.3184196,64956.03822611363
364.7489221,62042.08703259322
364.18239689999996,59248.33182096857
363.61881960000005,56583.488384872624
363.058166,53987.77405162074
362.50041219999997,51507.0485224752
361.94553460000003,49099.54169714219
361.3935098,46782.20426296778
360.8443147,44547.36320190792
360.29792630000003,42398.1882937596
359.754322,40329.425965196126
359.2134795,38318.38554642042
358.6753765,36393.318412184235
358.1399912,34536.699446994266
357.6073018,32759.20289083359
357.077287,31048.359329470586
356.5499253,29420.55483873287
356.025196,27856.709244979833
355.50307799999996,26337.878963977946
354.983551,24886.956391544732
354.4665945,23499.068752758867
353.95218839999995,22154.365114724525
353.4403127,20884.119962433237
352.9309478,19665.873756362373
352.42407410000004,18513.563480539844
351.9196722,17407.657276902406
351.4177232,16356.33381463577
350.91820789999997,15363.556166666138
350.4211078,14419.075212503209
349.9264043,13522.28166744393
349.434079,12656.259050572651
348.9441137,11853.039983361528
348.45649060000005,11075.643309594463
347.97119169999996,10345.518684227483
347.48819960000003,9642.710011006635
347.0074967,8972.79167172652
346.5290657,8346.909874438737
346.0528897,7745.475924880646
345.5789517,7175.16301212907
345.1072349,6644.296919431971
344.6377228,6141.1984620797375
344.17039889999995,5660.576161439212
343.70524710000007,5209.039712251508
343.24225110000003,4794.635955800008
342.7813952,4403.298444189605
342.32266339999995,4035.876973586693
341.8660403,3697.3397841036403
341.4115102,3370.5958939328166
340.959058,3073.149623548112
340.5086685,2785.2415480508057
340.06032660000005,2517.451554247732
339.6140175,2266.0410261419765
339.1697264,2032.906278637144
338.7274388,1817.6206722026002
338.28714019999995,1610.8836702198334
337.8488164,1420.6584529169486
337.41245310000005,1253.9658598419915
336.9780363,1090.8944514991013
336.5455522,958.354469197502
336.114987,836.6961283895323
335.686327,720.1354468834758
335.2595588,618.3031305556711
334.834669,525.54732423158
334.4116443,450.149356993122
333.9904716,383.14352649103137
333.57113799999996,317.32944283097765
333.1536305,265.52377067268463
332.73793639999997,218.76464922842902
332.32404310000004,173.40243516550493
331.91193799999996,141.66824255269125
331.5016088,107.13624077952892
331.0930432,88.95466879565014
330.6862289,61.55159995457283
330.281154,38.284319643890655
329.8778065,32.50723048262107
329.47617460000004,22.549526451277714
329.07624649999997,13.49950321144269
328.6780106,8.484915625371732
328.2814555,4.476939291212467
327.88656960000003,2.778952514288975
327.4933418,3.6762644513038336
327.1017607,-2.0736811958824184
326.7118154,-4.755390856917295
326.32349480000005,-0.3968972523078946
325.93678789999996,-3.4593827690758086
325.5516841,-4.1159912569171855
325.16817260000005,-1.001428366225368
324.7862428,0.508989371571115
324.40588419999995,-2.5134567150663147
324.0270864,-4.9585935771659235
323.649839,-3.4013631248621903
323.2741319,3.021813984385461
322.8999548,1.269686795771005
322.5272977,-0.6636148354605319
322.1561508,-0.0036200216653522257
321.786504,-1.129619921892961
321.4183476,3.0581501395799355
321.0516719,-1.4046844188804624
320.6864673,0.09158369776409517
320.3227243,-4.1184090634354975
319.96043330000003,0.6717841321741423
319.5995851,1.0586466757900501
319.2401704,0.9568532453627712
318.8821799,-2.165761847446437
318.5256045,-1.0227995985888294
318.1704352,-2.2619391097813457
317.8166631,0.9531898586186008
317.4642791,6.559570946943388
317.1132746,3.415295627810828
316.76364069999994,-1.3480776222018311
316.4153688,1.8755847972503723
316.06845039999996,-1.3033685068309853
315.72287689999996,0.6571809690215363
315.37863980000003,-1.691553765016596
315.0357308,2.5821352151989467
314.6941415,-1.7847252662656947
314.3538639,-1.6418735624152567
314.0148896,-0.3754283673655603
313.6772106,-4.234528841435708
313.3408189,4.9168031583889364
313.00570639999995,2.6525885266982443
312.67186549999997,0.8154742444272761
312.33928810000003,-2.426364144579097
312.0079665,1.0618151562036322
311.6778931,-0.1348332147070087
311.34906010000003,-0.2965931946274443
311.0214601,-2.297133163223512
310.6950856,-1.8300859526267763
310.369929,-2.4031393763982383
310.04598300000004,1.53570155618775
309.7232403,2.806795246746052
309.4016935,4.9626471126804015
309.0813356,1.6105432468904457
308.7621594,-2.677416480640081
308.4441577,-0.5134505992894356
308.1273236,0.6373929142972262
307.8116501,2.2043944628986645
307.49713019999996,3.309457095956863
307.18375710000004,-0.697874315288894
306.871524,2.879851423243656
306.5604242,-3.1581825683524003
306.2504509,1.86245986116684
