wave,flux
1817.164934,2.7471178694852383
1790.1022050000001,-0.009125120179961643
1763.812741,-1.3234869901677664
1738.2646949999998,0.36055363838418586
1713.427949,13.162593668821664
1689.273995,44.8873392395759
1665.7758310000002,153.3635222743654
1642.907862,364.95506948083573
1620.64581,686.3844185420264
1598.9666300000001,1103.3966086410844
1577.8484310000001,1642.4759516360816
1557.270407,2307.1139089346325
1537.212767,3074.0092261146306
1517.65668,3935.756653916569
1498.5842089999999,4804.400131849873
1479.978265,5646.807376285473
1461.822555,6469.616782477948
1444.101535,7266.150868015371
1426.800368,8128.096544073708
1409.904887,9028.183687688004
1393.401553,10013.818651513715
1377.2774220000001,11108.363714430396
1361.520115,12430.024536864104
1346.117782,13980.774285107307
1331.059081,15755.925233702106
1316.3331449999998,17742.119356940962
1301.92956,19957.099317257664
1287.838342,22283.816096291688
1274.049912,24727.54351709875
1260.5550779999999,27298.44074262503
1247.345017,29864.191082320187
1234.4112519999999,32473.481402249297
1221.74564,35106.391028609905
1209.340352,37739.52590213288
1197.187859,40356.30520777188
1185.28092,42974.225964714875
1173.612564,45633.095091567324
1162.1760800000002,48358.791554447394
1150.9650060000001,51023.05739494659
1139.973115,53757.08450900688
1129.194406,56495.67286952079
1118.623093,59207.36594996456
1108.253594,61998.849299312365
1098.0805269999998,64769.254247272875
1088.098695,67702.78722815996
1078.303081,70539.48584528276
1068.688841,73481.66703992427
1059.251295,76547.54019089528
1049.9859199999999,79660.19602002985
1040.8883449999998,83041.22109151255
1031.9543429999999,86408.86457938442
1023.1798259999999,89940.79831058912
1014.5608390000001,93660.26138201887
1006.0935529999999,97547.22973537284
997.774265,101661.28935390699
989.5993858999999,105829.08985771547
981.5654412999999,110083.58476430416
973.6690651,114440.3551684255
965.9069952,118889.34199518755
958.2760697000001,123218.44367615512
950.7732231000001,127794.56489159747
943.3954827,132246.66844694162
936.1399648,136816.18448162585
929.0038716,141383.24536258174
921.9844879000001,146117.20042526905
915.0791782,150993.8585210714
908.2853836000002,156044.44789673408
901.6006193,161506.40582558393
895.0224714,166939.15434467304
888.548595,172888.65995598646
882.1767113,179217.5848835134
875.9046055,186006.11213768332
869.7301242999998,193350.53127808814
863.6511742999999,201102.30108157906
857.6657193,209458.5313021798
851.7717787,218292.4572693341
845.9674256000001,227975.94868067032
840.2507849,238245.52346218182
834.6200316000001,249406.69435627604
829.0733892000001,261318.98819477265
823.6091279,273932.2333931387
818.2255633999999,287305.8745512343
812.9210552000001,301477.29522612464
807.694005,317373.14785380504
802.5428559,332882.7690110261
797.4660904,349185.27542589203
792.4622299,366396.7547133261
787.5298327,384222.38683297054
782.6674933999999,403909.3421360744
777.8738417999999,426540.6399458795
773.1475413,452085.05332675506
768.4872882999999,482792.6374812379
763.8918112000001,520787.7014728206
759.3598692,566205.4010495503
754.8902515999999,620808.3118783996
750.4817767999999,685598.6914973665
746.1332914,757134.1248626909
741.8436694000001,837826.1015540471
737.6118116,924416.0309838792
733.4366444,1013671.6733574256
729.3171195,1103864.337712855
725.2522127999999,1197427.380004883
721.2409241,1295959.56895041
717.282276,1398320.3760510937
713.3753136,1511372.9590828554
709.5191037000001,1646935.8743464728
705.7127343,1812738.3667253363
701.9553139,2018095.428758728
698.2459709,2282192.2637151275
694.5838534,2596788.848562641
690.9681281000001,2960007.136382505
687.3979803,3359940.325733502
683.8726131,3783387.201025928
680.3912472999999,4214696.385298762
676.9531202000001,4629632.984425605
673.557486,5007590.365730406
670.2036149,5320297.296256252
666.8907926,5568944.820361732
663.6183202999999,5757429.22554978
660.3855139,5891398.820208873
657.1917038,5975056.799024581
654.0362346,6021061.552170223
650.9184646000001,6039172.684593635
647.8377654,6042349.653635318
644.7935217999999,6040522.132662075
641.7851312999999,6041293.723655045
638.8120038,6040194.297524383
635.8735614,6040802.274526023
632.9692378999999,6041541.564244107
630.0984786,6040015.355774461
627.2607402000001,6041194.010240485
624.4554901,6041086.789449332
621.6822068,6040148.108794595
618.940379,6041553.655209154
616.2295054,6041664.060780026
613.549095,6041533.24934316
610.8986664,6041437.607813405
608.2777476,6041489.244051915
605.6858758999999,6041354.372466758
603.1225977000001,6040943.08360559
600.5874682,6041272.381552068
598.0800512,6041474.756199527
595.5999188999999,6041461.058840602
593.1466518,6041363.1930156415
590.7198384999999,6041510.3228149675
588.3190752,6041252.593846645
585.943966,6041166.4646551525
583.5941226,6041183.467766041
581.2691637,6041270.949155487
578.9687155,6041223.8762349775
576.692411,6041224.591457666
574.4398902,6041242.692046343
572.2107997,6041270.800147809
570.0047927,6041582.844462785
567.8215287,6041888.717530457
565.6606737000001,6041553.885924405
563.5218996,6041872.705135094
561.4048845,6041343.353586217
559.3093121,6041153.532566317
557.2348721,6040926.48471362
555.1812597,6041609.199466476
553.1481756000001,6041025.714218596
551.1353259,6041290.199704615
549.1424218999999,6040991.155075368
547.1691801,6041227.383749134
545.2153222000001,6041607.099603575
543.2805745000001,6041682.586404895
541.3646685,6041440.884929052
539.46734,6041407.418964715
537.5883299,6041498.944766731
535.7273833,6041406.564370596
533.8842498,6041194.409064418
532.0586836,6041901.986210893
530.2504428000001,6041119.8074831385
528.45929,6041707.902838182
526.6849915,6040979.318942791
524.927318,6040865.19629945
523.186044,6041125.309358628
521.4609475999999,6041366.405290825
519.7518110000001,6041460.146031734
518.0584200000001,6041280.125098119
516.3805639,6041099.647581972
514.7180356,6041587.992760276
513.0706316000001,6041425.103599957
511.43815149999995,6041180.991972396
509.82039860000003,6041697.875259744
508.2171791999999,6041452.550436053
506.628303,6041341.428450325
505.05358269999994,6041224.109423846
503.4928341,6041581.451256092
501.9458762,6041312.304334488
500.41253059999997,6041732.39910593
498.8926222,6041372.750275145
497.3859785,6041089.576896887
495.89242989999997,6041057.9038735
494.4118094,6041326.685814159
492.943953,6041173.722814743
491.488699,6041064.960199402
490.04588839999997,6040985.834754519
488.6153648,6041384.022950347
487.19697429999997,6041670.901987813
485.7905654,6041504.677259859
484.39598889999996,6041314.766016386
483.01309800000007,6041518.995553251
481.64174840000004,6040826.368828364
480.28179789999996,6041444.8663224485
478.93310639999993,6041529.7081315825
477.59553619999997,6041555.10911331
476.2689517,6041412.569763195
474.9532192,6041586.03178053
473.6482074,6041338.095312042
472.35378679999997,6041040.6835291665
471.06982989999995,6041707.327406915
469.79621110000005,6041808.151115192
468.53280700000005,6041530.060048079
467.2794956999999,6041144.068773244
466.0361575,6041415.782728228
464.80267410000005,6042126.9257713035
463.5789295,6041316.728790146
462.364809,6041627.245965023
461.1601998,6041447.320404547
459.9649909,6041287.721094008
458.7790727,6041120.953294301
457.6023374,6041368.371253258
456.4346788,6041399.524779397
455.2759921,6040964.969459503
454.12617439999997,6041149.736585688
452.9851239,6041384.054909605
451.85274060000006,6041225.583590956
450.7289258,6041310.000081147
449.6135822,6041409.4706412135
448.5066141,6041583.641052272
447.407927,6041209.858641258
446.317428,6041604.511341665
445.23502520000005,6041169.095575497
444.1606283,6041209.608099002
443.0941482,6041551.218808901
442.03549699999996,6041599.808807594
440.9845882,6041427.284723093
439.9413364,6037220.104019155
438.9056575,6019967.129521643
437.87746860000004,5978457.268626682
436.85668780000003,5904167.483099916
435.8432345,5787214.895056975
434.83702930000004,5620269.224284848
433.83799369999997,5396289.706945789
432.84605039999997,5109466.285584037
431.8611232,4762723.426455085
430.8831369,4372271.508306757
429.9120175,3953613.346717177
428.94769169999995,3523940.183409417
427.9900874,3099362.467548432
427.03913370000004,2695160.462720866
426.0947602,2323202.8531431733
425.1568978,1994743.761374283
424.22547829999996,1715700.0306182955
423.3004343,1482420.4961004434
422.3816994,1292084.033597196
421.4692081,1138177.0708164005
420.56289569999996,1015942.7175111684
419.66269850000003,918723.6842264384
418.7685535,841830.4509192136
417.8803987,780035.4356852195
416.9981727,729503.6705858854
416.12181519999996,687343.635261885
415.25126639999996,651286.5658824457
414.38646760000006,619339.8621087665
413.5273605,590742.4113599013
412.673888,564575.8581097301
411.8259934,540660.2510111689
410.9836208,518530.27930779534
410.14671519999996,498191.996632293
409.3152221,479406.0975386994
408.48908789999996,462159.4896884325
407.66825960000006,446246.609806456
406.8526847,431584.5252823167
406.0423117,417949.0800373853
405.2370896,405206.64254423854
404.43696800000004,393179.3268578517
403.64189730000004,381665.50249506097
402.8518283,370599.01066891575
402.0667126,359916.58929796354
401.28650239999996,349543.7429929452
400.5111505,339373.14505195536
399.7406101,329161.2984354852
398.9748353,318914.854185407
398.2137806,308570.5709873357
397.457401,298022.6048245114
396.7056521,287282.5670720684
395.9584903,276266.41223487677
395.2158722,265073.1870449301
394.4777551,253672.38810266682
393.7440968,242456.81108678976
393.0148555,231500.27348913602
392.2899901,220799.18513606102
391.56946,210485.26560920785
390.853225,200613.48362839324
390.1412452,191219.6984850112
389.43348169999996,182216.86416153554
388.7298955,173639.60684847212
388.03044839999995,165329.91500865627
387.3351027,157239.38192505942
386.6438209,149410.4414070134
385.95656610000003,141829.45398167978
385.2733019,134471.95446455636
384.5939922,127422.86027585196
383.9186014,120685.83832427324
383.2470943,114282.6754398634
382.5794362,108196.79773071062
381.9155926,102465.48928676844
381.2555296,97022.29121813072
380.59921360000004,91916.20780255216
379.9466115,87102.57491557577
379.29769039999996,82532.13424496411
378.652418,78195.14842117818
378.0107622,74054.90911778928
377.37269130000004,70148.3743900941
376.73817410000004,66423.34296648751
376.1071796,62894.76160999122
375.47967719999997,59496.844490049014
374.8556368,56247.457847675985
374.2350283,53112.882382371994
373.6178223,50120.74702416253
373.0039896,47214.355205684915
372.3935012,44382.78122229501
371.78632860000005,41620.91371500756
371.1824436,38945.26027082949
370.5818182,36339.52992159906
369.98442489999996,33771.793120097136
369.39023629999997,31304.155536631202
368.7992255,28891.09939008028
368.2113658,26541.777376943766
367.6266307,24285.676030190793
367.0449943,22111.61514569464
366.4664305,19998.8522704547
365.89091410000003,17957.975374183326
365.3184196,16015.323117980568
364.7489221,14157.942717856102
364.18239689999996,12381.129818266843
363.61881960000005,10666.327397984094
363.058166,9043.865916121542
362.50041219999997,7526.1176325695815
361.94553460000003,6145.0733066797375
361.3935098,4872.765874227558
360.8443147,3757.9506470872016
360.29792630000003,2777.2938185341563
359.754322,1960.4595644681592
359.2134795,1325.0326741709316
358.6753765,842.2618234577462
358.1399912,500.8507953142592
357.6073018,268.7146066265275
357.077287,116.19345645150699
356.5499253,36.17432921825839
356.025196,9.521066628009304
355.50307799999996,5.703474334708615
354.983551,1.1021412770524537
354.4665945,-1.7441676340305987
353.95218839999995,-3.1146512432186806
353.4403127,-0.3635094629604745
352.9309478,1.207916284231972
352.42407410000004,-4.210515115939042
351.9196722,-0.3783214738027779
351.4177232,1.0518269278715662
350.91820789999997,-1.2045860921897686
350.4211078,-0.11583692545274207
349.9264043,-2.2493597137863066
349.434079,2.1279270875904808
348.9441137,-5.201042016681943
348.45649060000005,-2.6531794901136165
347.97119169999996,-3.8331953755618917
347.48819960000003,1.8199685680100963
347.0074967,0.4811900950430508
346.5290657,-2.9130281502505784
346.0528897,1.5912266290353236
345.5789517,-1.2926457497798798
345.1072349,3.2512695987161164
344.6377228,2.8361057217636567
344.17039889999995,-0.020028505973751668
343.70524710000007,0.5476764275773935
343.24225110000003,-3.5680939912754037
342.7813952,-2.7104931354799437
342.32266339999995,-1.0492940255184005
341.8660403,-0.8109796458796208
341.4115102,0.008950399752212367
340.959058,-3.86177432675013
340.5086685,2.630069153808362
340.06032660000005,1.88863388529672
339.6140175,-2.1951803862997235
339.1697264,2.5273404570425946
338.7274388,-0.2515075001238439
338.28714019999995,-0.16823637961746785
337.8488164,1.065123772332485
337.41245310000005,2.751864616098103
336.9780363,7.0369095013461385
336.5455522,1.5231098126090956
336.114987,-1.8759135848653876
335.686327,0.1776425009431763
335.2595588,0.5223706476455632
334.834669,-0.6863929874972495
334.4116443,-3.50631708297648
333.9904716,0.6359662551299538
333.57113799999996,0.10402002773675974
333.1536305,-2.2828852024418502
332.73793639999997,0.7841965278837844
332.32404310000004,-0.5814565676719584
331.91193799999996,-0.07633505465133625
331.5016088,1.3669938271379598
331.0930432,-2.0450023104479524
330.6862289,0.7279031103540273
330.281154,-4.111975775708458
329.8778065,4.816258208324286
329.47617460000004,-2.724896641642826
329.07624649999997,0.18913114144595092
328.6780106,-2.17136955812892
328.2814555,3.2558212265278685
327.88656960000003,0.671350782731048
327.4933418,-1.7281585241469632
327.1017607,1.263013068187501
326.7118154,2.253286503744328
326.32349480000005,-1.1357061394757353
325.93678789999996,3.8430603751785983
325.5516841,-4.97994789404795
325.16817260000005,1.3406322704951292
324.7862428,1.3258650231455704
324.40588419999995,-0.7032539248495133
324.0270864,-1.4606712786983131
323.649839,1.5965690494187963
323.2741319,-6.5396119545416616
322.8999548,-3.617672988854423
322.5272977,0.5354852351731373
322.1561508,1.9719457003354248
321.786504,-0.8697378444504088
321.4183476,-2.5857957290885496
321.0516719,-0.13934262035051576
320.6864673,-0.7984844826886465
320.3227243,-1.4169461850686986
319.96043330000003,-0.9784737445449272
319.5995851,1.4120071839380717
319.2401704,5.478003431451506
318.8821799,-1.6826210277142404
318.5256045,-3.2105548591014044
318.1704352,-1.8591008159610207
317.8166631,-5.497620910582743
317.4642791,-1.3703082243386822
317.1132746,3.2385550889206023
316.76364069999994,-0.5973757175922866
316.4153688,-2.048153422230224
316.06845039999996,0.555080741369484
315.72287689999996,4.723735114255786
315.37863980000003,-0.4858239709463637
315.0357308,-0.5066222638113379
314.6941415,-1.4328735067965457
314.3538639,4.3498496773388
314.0148896,-2.6039130745485037
313.6772106,4.131784676403912
313.3408189,1.2945128720677586
313.00570639999995,0.4948493338114609
312.67186549999997,-4.883676849325104
312.33928810000003,-1.9333722725105016
312.0079665,-2.265008754376297
311.6778931,1.405300822647571
311.34906010000003,1.87653281648052
311.0214601,3.6082596476986906
310.6950856,-2.5402764337816155
310.369929,-4.09918146109657
310.04598300000004,-0.7913557707960901
309.7232403,-1.9779177372499417
309.4016935,4.634222182904912
309.0813356,-0.8904660312241581
308.7621594,0.002430335906120809
308.4441577,1.6600067721049798
308.1273236,1.0026653457027417
307.8116501,-1.1687406682640065
307.49713019999996,-0.7229802577286155
307.18375710000004,-0.8671009546099553
306.871524,-2.524359926290828
306.5604242,-1.8339688713263196
306.2504509,0.4634630448390695
