wave,flux
1817.164934,1.9195158869987845
1790.1022050000001,-7.285657122591922
1763.812741,14.227484424403755
1738.2646949999998,12.872851558154954
1713.427949,58.05935347856598
1689.273995,464.6353049904442
1665.7758310000002,1401.7483103057505
1642.907862,2952.768701027471
1620.64581,5111.639400460659
1598.9666300000001,7925.916735931203
1577.8484310000001,11373.912761154641
1557.270407,15462.258600573821
1537.212767,20246.414442101497
1517.65668,25061.08842352909
1498.5842089999999,29638.398862676782
1479.978265,33908.526729032375
1461.822555,37952.04648213591
1444.101535,41539.32631113556
1426.800368,44815.895983890056
1409.904887,47769.57667397462
1393.401553,50337.416733980936
1377.2774220000001,52815.19952384669
1361.520115,55379.422737205336
1346.117782,57976.53613774065
1331.059081,60616.894287350886
1316.3331449999998,63388.952190408396
1301.92956,66148.06509872325
1287.838342,68983.04961592138
1274.049912,71840.03362824388
1260.5550779999999,74666.45635770804
1247.345017,77509.20819253924
1234.4112519999999,80451.31205241707
1221.74564,83371.84275648677
1209.340352,86333.50879028831
1197.187859,89274.3188167082
1185.28092,92211.56526266254
1173.612564,95191.697875787
1162.1760800000002,98074.2919332827
1150.9650060000001,101073.62421614506
1139.973115,103903.28127631338
1129.194406,106830.43039706806
1118.623093,109715.47748125614
1108.253594,112546.24819106725
1098.0805269999998,115485.01898300336
1088.098695,118458.78756001234
1078.303081,121525.57622051654
1068.688841,124820.22384125247
1059.251295,128597.36964251063
1049.9859199999999,132568.99568746824
1040.8883449999998,137256.67531202734
1031.9543429999999,142575.3958797868
1023.1798259999999,148613.68526050984
1014.5608390000001,155498.50901977764
1006.0935529999999,163030.23550368386
997.774265,171311.05398553878
989.5993858999999,179883.25301752894
981.5654412999999,189112.3464760328
973.6690651,198386.44305819375
965.9069952,207539.43415553245
958.2760697000001,216262.76741475984
950.7732231000001,224993.5007259557
943.3954827,233018.8800311134
936.1399648,240534.39758797156
929.0038716,247387.8750942753
921.9844879000001,253933.98339373714
915.0791782,259641.54780703693
908.2853836000002,265621.5942171495
901.6006193,271261.8135354004
895.0224714,277270.7978884904
888.548595,284292.6588538282
882.1767113,292161.281014905
875.9046055,301251.61366562947
869.7301242999998,312022.52023008355
863.6511742999999,325751.49708344263
857.6657193,341185.96416038595
851.7717787,359638.0252742143
845.9674256000001,382648.06315097475
840.2507849,409946.0178705329
834.6200316000001,442244.6438203272
829.0733892000001,479288.98189611157
823.6091279,522333.3830326772
818.2255633999999,571570.5473101987
812.9210552000001,624665.972941722
807.694005,681836.4526846092
802.5428559,737859.2299090067
797.4660904,796464.9029812353
792.4622299,855897.1156371306
787.5298327,919486.2661684642
782.6674933999999,988921.5976990046
777.8738417999999,1067769.155734241
773.1475413,1165900.0275027948
768.4872882999999,1287356.24360814
763.8918112000001,1440816.2715058706
759.3598692,1635238.528964898
754.8902515999999,1867500.2940559809
750.4817767999999,2140410.2710875957
746.1332914,2448662.434263737
741.8436694000001,2780685.235105137
737.6118116,3126623.9943630323
733.4366444,3469007.280879916
729.3171195,3804010.3396688425
725.2522127999999,4119525.292556482
721.2409241,4414087.341601895
717.282276,4676976.0228573885
713.3753136,4909166.390814646
709.5191037000001,5114462.535042614
705.7127343,5299510.0019588815
701.9553139,5463866.439919999
698.2459709,5608018.215705
694.5838534,5729978.830777433
690.9681281000001,5825483.11327793
687.3979803,5900748.258639658
683.8726131,5956097.497514702
680.3912472999999,5997327.145060863
676.9531202000001,6029390.306387245
673.557486,6037468.334840485
670.2036149,6041218.430712093
666.8907926,6041398.828283128
663.6183202999999,6042576.56461009
660.3855139,6042554.846610152
657.1917038,6041104.336137266
654.0362346,6040205.919868355
650.9184646000001,6041902.863946036
647.8377654,6042334.926072623
644.7935217999999,6041097.101267127
641.7851312999999,6040853.966436864
638.8120038,6041063.676591096
635.8735614,6041859.209643303
632.9692378999999,6041594.342779345
630.0984786,6042595.766765038
627.2607402000001,6040907.722525257
624.4554901,6041120.245802358
621.6822068,6040760.8543692315
618.940379,6042156.362236205
616.2295054,6041200.5121146375
613.549095,6041269.87462429
610.8986664,6041337.4417504575
608.2777476,6041104.4840971185
605.6858758999999,6041409.600825551
603.1225977000001,6041341.274180902
600.5874682,6041321.266820867
598.0800512,6040996.988587297
595.5999188999999,6041179.5603025425
593.1466518,6041933.667538966
590.7198384999999,6041945.753689247
588.3190752,6041402.28288686
585.943966,6041727.230293592
583.5941226,6041671.068271438
581.2691637,6041705.378099305
578.9687155,6041501.7879726775
576.692411,6041199.556765285
574.4398902,6041812.752480073
572.2107997,6041563.642919945
570.0047927,6041338.248603199
567.8215287,6041686.908680479
565.6606737000001,6041636.106523137
563.5218996,6041481.145666072
561.4048845,6041571.73770399
559.3093121,6041603.581802908
557.2348721,6041127.042139603
555.1812597,6041577.157977729
553.1481756000001,6041544.192126101
551.1353259,6041097.511170022
549.1424218999999,6041133.445848928
547.1691801,6041626.908683045
545.2153222000001,6041210.326747327
543.2805745000001,6041563.19051265
541.3646685,6041461.169490527
539.46734,6041441.790626933
537.5883299,6041515.0441639675
535.7273833,6040915.874594318
533.8842498,6041175.423447697
532.0586836,6041456.787870117
530.2504428000001,6041378.495514552
528.45929,6041610.467020975
526.6849915,6041226.12925115
524.927318,6041511.406126033
523.186044,6041983.065922082
521.4609475999999,6041183.186213583
519.7518110000001,6041463.133430709
518.0584200000001,6041882.934279135
516.3805639,6041486.9600082375
514.7180356,6041279.5289562335
513.0706316000001,6040912.203189831
511.43815149999995,6041359.813302719
509.82039860000003,6041481.470922379
508.2171791999999,6041645.102898997
506.628303,6041444.418449439
505.05358269999994,6041159.493078752
503.4928341,6041253.252459726
501.9458762,6041523.250685028
500.41253059999997,6041358.050992055
498.8926222,6041802.125721759
497.3859785,6041650.479537244
495.89242989999997,6041237.61457516
494.4118094,6041379.913153612
492.943953,6041365.864741247
491.488699,6041492.71245107
490.04588839999997,6041424.408475492
488.6153648,6041638.737125383
487.19697429999997,6041042.679662361
485.7905654,6041591.7929646075
484.39598889999996,6041000.717994218
483.01309800000007,6041340.607283985
481.64174840000004,6041006.991782928
480.28179789999996,6041257.1075125225
478.93310639999993,6041521.798899553
477.59553619999997,6041452.767669214
476.2689517,6041555.921920845
474.9532192,6041100.837303948
473.6482074,6041294.191626983
472.35378679999997,6041505.477516987
471.06982989999995,6041626.683836748
469.79621110000005,6041629.8248605225
468.53280700000005,6041400.630630923
467.2794956999999,6041603.93615202
466.0361575,6041418.382160185
464.80267410000005,6041471.459867586
463.5789295,6041703.350866052
462.364809,6041516.0377469985
461.1601998,6041148.8115732
459.9649909,6041748.618614187
458.7790727,6041260.9454903
457.6023374,6041614.047964453
456.4346788,6041522.940384429
455.2759921,6041622.829925277
454.12617439999997,6041319.789641952
452.9851239,6041110.330051925
451.85274060000006,6041616.908643423
450.7289258,6041335.569872572
449.6135822,6041259.243159172
448.5066141,6041656.757671289
447.407927,6041716.728289807
446.317428,6041460.307087135
445.23502520000005,6041627.213782135
444.1606283,6041419.038218858
443.0941482,6041484.4860262005
442.03549699999996,6041190.657820842
440.9845882,6040786.785927894
439.9413364,6041246.340858563
438.9056575,6041149.040637802
437.87746860000004,6041711.829718844
436.85668780000003,6041538.138013871
435.8432345,6041280.42739168
434.83702930000004,6041745.409479419
433.83799369999997,6041668.948912585
432.84605039999997,6041284.863498895
431.8611232,6041537.963002936
430.8831369,6041784.370318767
429.9120175,6041186.656607654
428.94769169999995,6041270.498240148
427.9900874,6041457.485463434
427.03913370000004,6040890.239417693
426.0947602,6041156.5163005525
425.1568978,6041490.313062047
424.22547829999996,6041226.474812607
423.3004343,6038214.032781338
422.3816994,6027581.175358985
421.4692081,6007105.798022759
420.56289569999996,5971586.029329491
419.66269850000003,5920485.264145733
418.7685535,5850247.833319968
417.8803987,5760403.539170649
416.9981727,5648576.438625437
416.12181519999996,5520508.447703829
415.25126639999996,5382724.277244685
414.38646760000006,5242016.873481251
413.5273605,5103652.665792476
412.673888,4970849.833735484
411.8259934,4847240.662143908
410.9836208,4734834.49437223
410.14671519999996,4633598.993489431
409.3152221,4541733.4667058885
408.48908789999996,4455741.574536396
407.66825960000006,4372090.182311144
406.8526847,4288297.457953429
406.0423117,4203288.337458542
405.2370896,4117875.4300956475
404.43696800000004,4031259.844965481
403.64189730000004,3945937.5173215196
402.8518283,3863607.6384829427
402.0667126,3786946.9448731868
401.28650239999996,3716978.6173790894
400.5111505,3655919.690499087
399.7406101,3603284.092887373
398.9748353,3558717.0731038093
398.2137806,3521939.011196747
397.457401,3490541.4639386213
396.7056521,3464246.3203415317
395.9584903,3439609.770572713
395.2158722,3416590.5119207473
394.4777551,3392673.8170183613
393.7440968,3368373.701070022
393.0148555,3343462.8030671882
392.2899901,3316221.5876230667
391.56946,3285928.043763102
390.853225,3252976.038402013
390.1412452,3215278.2605028367
389.43348169999996,3172465.0713931015
388.7298955,3122715.9200232923
388.03044839999995,3065116.5425705607
387.3351027,2998186.6877768296
386.6438209,2922084.2375016827
385.95656610000003,2835571.6252424936
385.2733019,2739651.4749025432
384.5939922,2633664.22421965
383.9186014,2519004.6282083904
383.2470943,2395701.491003464
382.5794362,2265120.2137928642
381.9155926,2127970.7159638
381.2555296,1985308.3531018882
380.59921360000004,1838446.29204001
379.9466115,1688979.6988233153
379.29769039999996,1539010.1745317134
378.652418,1390536.4004909836
378.0107622,1245682.1052297829
377.37269130000004,1106744.141341247
376.73817410000004,975610.5571285952
376.1071796,854107.7041102748
375.47967719999997,743885.0545813388
374.8556368,645561.0950906915
374.2350283,559497.8410327522
373.6178223,485697.787236885
373.0039896,423392.93962599593
372.3935012,371208.8465763185
371.78632860000005,328415.6252978842
371.1824436,293720.34634769364
370.5818182,265378.64172505843
369.98442489999996,242551.29042177857
369.39023629999997,224079.2892025285
368.7992255,208698.68976999703
368.2113658,195822.96595549225
367.6266307,184975.09252325867
367.0449943,175482.85830460722
366.4664305,167143.08638372054
365.89091410000003,159798.98132011044
365.3184196,153131.28984885276
364.7489221,147077.56257389302
364.18239689999996,141542.5516211229
363.61881960000005,136462.96448927096
363.058166,131725.42927169419
362.50041219999997,127372.01614198914
361.94553460000003,123238.29103382098
361.3935098,119250.13872954306
360.8443147,115424.37190356365
360.29792630000003,111709.9322368766
359.754322,108073.23741209712
359.2134795,104468.85852494232
358.6753765,100914.99935043992
358.1399912,97304.30106945377
357.6073018,93643.22639475943
357.077287,89974.27036570873
356.5499253,86288.94292294026
356.025196,82600.94866794396
355.50307799999996,78895.2756423529
354.983551,75208.39046894599
354.4665945,71554.58835201497
353.95218839999995,67986.29766850991
353.4403127,64544.63917344554
352.9309478,61280.43405564535
352.42407410000004,58179.12621612821
351.9196722,55266.93058603085
351.4177232,52523.51779788702
350.91820789999997,49953.796524005214
350.4211078,47586.67580096072
349.9264043,45349.02112302294
349.434079,43262.43171747028
348.9441137,41265.12005282293
348.45649060000005,39392.425100922155
347.97119169999996,37564.29349629373
347.48819960000003,35814.782198025816
347.0074967,34155.66871379437
346.5290657,32596.927580672596
346.0528897,31102.87164491164
345.5789517,29688.149344278485
345.1072349,28307.801014974462
344.6377228,27042.466663697047
344.17039889999995,25852.955692291885
343.70524710000007,24733.31095440461
343.24225110000003,23659.38921717932
342.7813952,22634.32279855143
342.32266339999995,21636.13514604364
341.8660403,20687.145865483766
341.4115102,19776.097446236377
340.959058,18879.85344513308
340.5086685,17999.219738723506
340.06032660000005,17113.495594905406
339.6140175,16236.563762851203
339.1697264,15381.702923732097
338.7274388,14532.662349024526
338.28714019999995,13713.93544745046
337.8488164,12905.774521739097
337.41245310000005,12126.101882724266
336.9780363,11375.288206215046
336.5455522,10636.28557365386
336.114987,9911.722801133224
335.686327,9200.330106463776
335.2595588,8506.580399273103
334.834669,7809.938606171421
334.4116443,7115.35374019187
333.9904716,6427.10152677224
333.57113799999996,5780.045882067579
333.1536305,5161.00364992619
332.73793639999997,4572.573528632332
332.32404310000004,3998.381258407257
331.91193799999996,3460.209538278737
331.5016088,2969.3824723210882
331.0930432,2514.509042439237
330.6862289,2094.5409088083497
330.281154,1697.192939204747
329.8778065,1324.321027030202
329.47617460000004,998.9322965443089
329.07624649999997,721.9132963683887
328.6780106,497.4371377364454
328.2814555,326.18145152441934
327.88656960000003,196.66362599711772
327.4933418,106.20899020477607
327.1017607,47.91709359348065
326.7118154,19.092557645794514
326.32349480000005,1.111451368448555
325.93678789999996,-3.427172236899518
325.5516841,-3.030422144711951
325.16817260000005,-5.510420289464354
324.7862428,-2.31339907327684
324.40588419999995,-2.6848557278457093
324.0270864,1.3640535995188952
323.649839,-0.05846084632218479
323.2741319,0.3180715553942373
322.8999548,-3.5066636168684107
322.5272977,3.1689991039231784
322.1561508,-2.5694047179829647
321.786504,1.2381345030501951
321.4183476,-0.6844908254417167
321.0516719,0.8862587246446371
320.6864673,1.02523267771
320.3227243,-4.1289388691586115
319.96043330000003,-0.7164235777267305
319.5995851,-2.66696093757078
319.2401704,2.6666477369855066
318.8821799,1.451082202990616
318.5256045,-0.4532842624160242
318.1704352,5.2237141104395475
317.8166631,-0.3891521665091722
317.4642791,-0.15155110217939413
317.1132746,-0.1970466730633121
316.76364069999994,-4.351848138162008
316.4153688,-2.028435084730309
316.06845039999996,-0.6938143251854071
315.72287689999996,2.9920209816212058
315.37863980000003,2.0596001192465745
315.0357308,0.12086785990876503
314.6941415,0.21108753018535972
314.3538639,1.243300660506777
314.0148896,1.9542248717994253
313.6772106,2.5955449687091616
313.3408189,-1.5276358142096544
313.00570639999995,1.4445332471041852
312.67186549999997,1.930540297028453
312.33928810000003,1.9080321201637835
312.0079665,-3.2270024685130303
311.6778931,0.29162276396213505
311.34906010000003,2.5464423409128583
311.0214601,2.916737831289229
310.6950856,0.3877623510367777
310.369929,-1.3412277466569098
310.04598300000004,2.2396067821459518
309.7232403,2.6059457188019097
309.4016935,-2.9107336557030625
309.0813356,-2.5776073573655682
308.7621594,0.023920452178053702
308.4441577,-0.20110438109483525
308.1273236,2.3679433976642423
307.8116501,-1.6337772209538524
307.49713019999996,-1.7490231937949516
307.18375710000004,-2.98925225193596
306.871524,4.860345013283874
306.5604242,1.7282239488903008
306.2504509,-6.653094869361662
