wave,flux
1817.164934,11.40457602339468
1790.1022050000001,3.5523843712970864
1763.812741,21.18380766615681
1738.2646949999998,43.42488845722498
1713.427949,178.1811118061031
1689.273995,992.312270830603
1665.7758310000002,3057.9213090749126
1642.907862,6277.944882673097
1620.64581,10854.135343354521
1598.9666300000001,16689.17156753716
1577.8484310000001,23912.186800585176
1557.270407,32609.157888502592
1537.212767,42735.1834926143
1517.65668,52956.05288748414
1498.5842089999999,62820.95130276981
1479.978265,72259.13412290487
1461.822555,81146.76981930037
1444.101535,89457.37667225805
1426.800368,97030.2297607372
1409.904887,104067.67582761754
1393.401553,110290.57677490872
1377.2774220000001,116268.2723571594
1361.520115,122327.86412771695
1346.117782,128250.9385394925
1331.059081,134272.08044674012
1316.3331449999998,140124.06179480552
1301.92956,145909.82489278546
1287.838342,151608.56209870483
1274.049912,157212.7164175336
1260.5550779999999,162718.5856450142
1247.345017,168256.8455994822
1234.4112519999999,173568.54152076464
1221.74564,179122.07163854668
1209.340352,184461.69099603395
1197.187859,189622.49106978017
1185.28092,195114.78002012058
1173.612564,200439.83158696158
1162.1760800000002,205876.4916710913
1150.9650060000001,211199.9501623149
1139.973115,216622.76033851926
1129.194406,221932.43133071784
1118.623093,227439.75240772808
1108.253594,232773.9239304415
1098.0805269999998,238224.0906514745
1088.098695,243698.13000253128
1078.303081,249288.20484690173
1068.688841,255293.3722890552
1059.251295,261745.7732625557
1049.9859199999999,268727.48310394346
1040.8883449999998,276921.60296596144
1031.9543429999999,286037.87922832783
1023.1798259999999,297148.65108717943
1014.5608390000001,309208.4487206909
1006.0935529999999,322983.3970185795
997.774265,338353.621633154
989.5993858999999,354218.3957002685
981.5654412999999,371262.31759944867
973.6690651,388292.1515856879
965.9069952,405797.36156560475
958.2760697000001,422224.03134483506
950.7732231000001,437824.9255342285
943.3954827,453052.3843750204
936.1399648,466644.39601763705
929.0038716,479061.122482125
921.9844879000001,490345.3513890768
915.0791782,500157.65623475256
908.2853836000002,509446.9066745366
901.6006193,518691.0428901524
895.0224714,529024.5620533596
888.548595,539755.4124112276
882.1767113,553107.3168880921
875.9046055,569582.5499933253
869.7301242999998,587882.054550526
863.6511742999999,611597.9547571031
857.6657193,639999.2880991898
851.7717787,674615.2643775617
845.9674256000001,717290.6291888396
840.2507849,767122.7774721845
834.6200316000001,829889.7560308547
829.0733892000001,899575.1320035146
823.6091279,979849.2496994559
818.2255633999999,1069689.672151783
812.9210552000001,1169319.9297980329
807.694005,1275389.6396462065
802.5428559,1385937.2927083229
797.4660904,1500298.7949159828
792.4622299,1617939.3115693168
787.5298327,1747052.6031577569
782.6674933999999,1886699.4205014068
777.8738417999999,2050901.7733123032
773.1475413,2252177.5617654542
768.4872882999999,2505120.5821721805
763.8918112000001,2803339.629186487
759.3598692,3142975.668981283
754.8902515999999,3522728.2821662663
750.4817767999999,3924218.1973610166
746.1332914,4336506.087087944
741.8436694000001,4732927.971012074
737.6118116,5092574.652856418
733.4366444,5388038.985715578
729.3171195,5620653.530567567
725.2522127999999,5793977.668184702
721.2409241,5915125.650145108
717.282276,5990446.772273335
713.3753136,6026936.0240965225
709.5191037000001,6041593.78076818
705.7127343,6041666.225154821
701.9553139,6041710.978230834
698.2459709,6043224.60351727
694.5838534,6041754.60758876
690.9681281000001,6044153.1321662115
687.3979803,6043263.95503906
683.8726131,6043149.596222685
680.3912472999999,6043401.66362453
676.9531202000001,6039205.65414857
673.557486,6041566.867802174
670.2036149,6040971.510044905
666.8907926,6040556.795712273
663.6183202999999,6040953.3021817515
660.3855139,6041836.16672949
657.1917038,6042265.088798348
654.0362346,6040928.752603832
650.9184646000001,6042783.1641150825
647.8377654,6040968.78331425
644.7935217999999,6040169.622984739
641.7851312999999,6041709.968656203
638.8120038,6040704.7206254415
635.8735614,6041071.14057221
632.9692378999999,6039961.891567373
630.0984786,6041001.049946182
627.2607402000001,6041559.902189568
624.4554901,6042315.209860621
621.6822068,6040132.493237778
618.940379,6040552.2398745315
616.2295054,6041407.168774594
613.549095,6041141.983517824
610.8986664,6041269.181570143
608.2777476,6041536.4675943935
605.6858758999999,6041650.385728155
603.1225977000001,6041325.899872342
600.5874682,6041148.544536555
598.0800512,6041194.508301525
595.5999188999999,6041476.1116741635
593.1466518,6041178.581082035
590.7198384999999,6041691.979593652
588.3190752,6041355.692475652
585.943966,6041613.207856535
583.5941226,6041567.485959161
581.2691637,6041462.734519808
578.9687155,6041608.786927623
576.692411,6041498.74025457
574.4398902,6041497.2805058835
572.2107997,6041061.556741759
570.0047927,6041314.8336209785
567.8215287,6041485.574335
565.6606737000001,6041943.988702439
563.5218996,6041733.527031416
561.4048845,6041195.165425875
559.3093121,6041162.355483953
557.2348721,6041192.8422551565
555.1812597,6041095.78935842
553.1481756000001,6040975.511261683
551.1353259,6041567.0263752835
549.1424218999999,6041201.815505727
547.1691801,6041363.32396818
545.2153222000001,6041407.4361323165
543.2805745000001,6041648.365685658
541.3646685,6041264.923725587
539.46734,6041234.899083828
537.5883299,6041924.797066808
535.7273833,6041497.67499747
533.8842498,6041562.248430379
532.0586836,6041600.039858783
530.2504428000001,6041500.556700707
528.45929,6041538.743469438
526.6849915,6041427.972779607
524.927318,6041494.397857502
523.186044,6041465.5220213225
521.4609475999999,6041625.599210475
519.7518110000001,6041441.998255925
518.0584200000001,6040989.620914977
516.3805639,6041157.138562397
514.7180356,6041166.01924841
513.0706316000001,6041350.083887236
511.43815149999995,6041278.4710104875
509.82039860000003,6041408.501394083
508.2171791999999,6041068.337963971
506.628303,6041521.283046102
505.05358269999994,6041118.997532188
503.4928341,6041426.978011341
501.9458762,6041365.4477036735
500.41253059999997,6041177.219287235
498.8926222,6041676.612605861
497.3859785,6041160.8466301225
495.89242989999997,6041286.489279463
494.4118094,6041413.230935055
492.943953,6040948.242421034
491.488699,6041837.850530167
490.04588839999997,6041454.199169682
488.6153648,6041795.807524329
487.19697429999997,6041344.516819652
485.7905654,6041457.292470524
484.39598889999996,6041406.7948118765
483.01309800000007,6041068.511004967
481.64174840000004,6041397.900874372
480.28179789999996,6041191.116353609
478.93310639999993,6041348.304324278
477.59553619999997,6041342.88653115
476.2689517,6041104.947535668
474.9532192,6039915.745677577
473.6482074,6035321.025327006
472.35378679999997,6022943.026390015
471.06982989999995,6000726.065320445
469.79621110000005,5965483.755419727
468.53280700000005,5911748.542760599
467.2794956999999,5840617.681169692
466.0361575,5748554.317550515
464.80267410000005,5637286.4684058335
463.5789295,5510987.594541221
462.364809,5374999.836205935
461.1601998,5232668.270818219
459.9649909,5092142.573935708
458.7790727,4959021.510192001
457.6023374,4835650.925464207
456.4346788,4725646.467013229
455.2759921,4628668.354690472
454.12617439999997,4545557.162730298
452.9851239,4473668.265753752
451.85274060000006,4411737.8410774255
450.7289258,4357710.6310644
449.6135822,4308110.509731703
448.5066141,4260474.887802942
447.407927,4212847.963803884
446.317428,4162477.4827832724
445.23502520000005,4107536.7782009887
444.1606283,4046378.1474412763
443.0941482,3977576.5005760863
442.03549699999996,3900646.0530879917
440.9845882,3815949.9220985086
439.9413364,3725010.316351408
438.9056575,3630366.3756301887
437.87746860000004,3533370.3664030004
436.85668780000003,3436849.372694686
435.8432345,3343389.422131881
434.83702930000004,3254688.5256350664
433.83799369999997,3171392.6655632383
432.84605039999997,3094260.6732781576
431.8611232,3022432.6237005736
430.8831369,2955312.3163571106
429.9120175,2890490.9774908423
428.94769169999995,2826226.145194365
427.9900874,2760645.4202731103
427.03913370000004,2691532.4644198003
426.0947602,2618164.2611341733
425.1568978,2541170.34888221
424.22547829999996,2459550.971487072
423.3004343,2375916.173755389
422.3816994,2291788.997982742
421.4692081,2210295.1979838847
420.56289569999996,2132947.1564595117
419.66269850000003,2062816.1477376928
418.7685535,2001478.1367042938
417.8803987,1950177.74047554
416.9981727,1909879.4359562816
416.12181519999996,1879998.417320096
415.25126639999996,1860343.522699821
414.38646760000006,1850417.517624307
413.5273605,1848824.5733037344
412.673888,1853970.4603266746
411.8259934,1864433.3996553759
410.9836208,1878507.4373561803
410.14671519999996,1894094.3828162085
409.3152221,1909526.6622553854
408.48908789999996,1922443.4354555118
407.66825960000006,1931525.149234077
406.8526847,1935248.1543852545
406.0423117,1932934.3581407082
405.2370896,1924059.4739755557
404.43696800000004,1909543.1237100568
403.64189730000004,1890288.0456943363
402.8518283,1867566.0114144715
402.0667126,1843641.2243163828
401.28650239999996,1819730.7816174463
400.5111505,1797627.4649874792
399.7406101,1777509.8714324613
398.9748353,1759767.867826354
398.2137806,1744004.3404384018
397.457401,1728918.2643739057
396.7056521,1713467.2164518284
395.9584903,1695351.8876778975
395.2158722,1672994.7670991602
394.4777551,1645032.0657291291
393.7440968,1611470.408348582
393.0148555,1571647.4460158076
392.2899901,1525447.02396243
391.56946,1473768.3753027814
390.853225,1417277.100906899
390.1412452,1357368.0076048071
389.43348169999996,1295333.7996621078
388.7298955,1232058.533476178
388.03044839999995,1168235.4819627518
387.3351027,1104285.453063702
386.6438209,1041124.2280181372
385.95656610000003,978880.3009755801
385.2733019,917015.3790673913
384.5939922,855775.8170923906
383.9186014,794902.3943686363
383.2470943,734323.4378589634
382.5794362,674295.5062881644
381.9155926,615023.3691247372
381.2555296,556912.7244098092
380.59921360000004,500284.1184973453
379.9466115,446096.76640986226
379.29769039999996,394978.59393560654
378.652418,347527.73098050785
378.0107622,304225.8982729712
377.37269130000004,265453.4700706548
376.73817410000004,231419.6763625878
376.1071796,202043.8095325137
375.47967719999997,177079.0789652311
374.8556368,156116.13191470644
374.2350283,138910.47119450875
373.6178223,124820.28285629665
373.0039896,113336.31881739851
372.3935012,103967.75558156404
371.78632860000005,96350.29639389133
371.1824436,90005.36575538787
370.5818182,84742.37912001832
369.98442489999996,80245.71300941923
369.39023629999997,76346.71531617678
368.7992255,72871.80659315437
368.2113658,69753.34550492397
367.6266307,66899.0147710454
367.0449943,64228.53215443598
366.4664305,61763.016798323035
365.89091410000003,59477.975344798324
365.3184196,57322.660250664274
364.7489221,55327.18310803983
364.18239689999996,53401.58528613266
363.61881960000005,51620.77848669383
363.058166,49910.211516058
362.50041219999997,48285.158896795605
361.94553460000003,46712.459958550135
361.3935098,45155.8355565864
360.8443147,43605.56548803111
360.29792630000003,42066.81088996562
359.754322,40545.36576538834
359.2134795,38993.73006400049
358.6753765,37420.97438466248
358.1399912,35870.798538050185
357.6073018,34311.22878552877
357.077287,32789.06272581289
356.5499253,31293.871782327875
356.025196,29858.942102931695
355.50307799999996,28464.466112341717
354.983551,27144.560201062206
354.4665945,25909.980663981
353.95218839999995,24726.83348295709
353.4403127,23635.80537312583
352.9309478,22605.755010489745
352.42407410000004,21632.559678544785
351.9196722,20708.06174107711
351.4177232,19841.52975994864
350.91820789999997,19009.99728020229
350.4211078,18253.909528489592
349.9264043,17526.857345668424
349.434079,16818.702879363645
348.9441137,16136.9743858921
348.45649060000005,15494.408952422507
347.97119169999996,14859.924397111348
347.48819960000003,14235.927310004732
347.0074967,13616.144691003574
346.5290657,12986.205892700411
346.0528897,12359.576355653433
345.5789517,11742.634328427881
345.1072349,11158.826203127972
344.6377228,10591.08379310922
344.17039889999995,10031.4706088439
343.70524710000007,9498.96058488366
343.24225110000003,9000.677789631929
342.7813952,8546.7031782377
342.32266339999995,8120.31050953529
341.8660403,7711.339860398061
341.4115102,7308.752368748801
340.959058,6921.169434584182
340.5086685,6535.000710696571
340.06032660000005,6144.648008784513
339.6140175,5738.943614971004
339.1697264,5336.441654106457
338.7274388,4918.630275521618
338.28714019999995,4506.418530210558
337.8488164,4116.468961203317
337.41245310000005,3745.8504102574248
336.9780363,3391.563866646441
336.5455522,3060.9639306862764
336.114987,2756.6732314534693
335.686327,2477.2132675858284
335.2595588,2229.4095982100844
334.834669,2000.70832681227
334.4116443,1784.744352598553
333.9904716,1570.4859262243913
333.57113799999996,1369.33270660262
333.1536305,1175.4643341837775
332.73793639999997,1000.5844221289624
332.32404310000004,833.9077356050827
331.91193799999996,675.4321230891816
331.5016088,535.9922353035905
331.0930432,406.4304544155112
330.6862289,300.37255288356965
330.281154,213.4276670340212
329.8778065,153.64060578660843
329.47617460000004,101.18517675184832
329.07624649999997,56.018205470794996
328.6780106,24.920888278705878
328.2814555,13.493968487416065
327.88656960000003,6.499585100658821
327.4933418,3.0711162398437417
327.1017607,0.4211712405238448
326.7118154,-3.628356633158128
326.32349480000005,4.380465371805975
325.93678789999996,0.003280509446404522
325.5516841,2.1365273358581307
325.16817260000005,2.0257530862077155
324.7862428,-0.9832619248553576
324.40588419999995,1.5317336560726436
324.0270864,-0.6371177107921945
323.649839,1.4930212660095883
323.2741319,-2.1677899543600563
322.8999548,3.296508720802625
322.5272977,-1.26366432809176
322.1561508,6.445478393199138
321.786504,-2.0925971687116416
321.4183476,-4.2762528092465875
321.0516719,-2.568599159245167
320.6864673,5.637008109958789
320.3227243,0.8878562053837624
319.96043330000003,3.5682812473215653
319.5995851,4.828767689203105
319.2401704,0.11209094029004764
318.8821799,-0.012823002994224848
318.5256045,-4.089671099190369
318.1704352,-0.0154781775377122
317.8166631,2.4023420767527446
317.4642791,-0.1031638590291816
317.1132746,-0.013994592726308009
316.76364069999994,-1.3108296806358857
316.4153688,0.3494056049809293
316.06845039999996,2.2909914988510094
315.72287689999996,-3.2479274510619383
315.37863980000003,-0.5675648237826443
315.0357308,0.12596624609716814
314.6941415,3.12257249824206
314.3538639,-0.5089551659933846
314.0148896,1.1166939545845376
313.6772106,-0.783054737311966
313.3408189,6.405248699813347
313.00570639999995,-0.3685803644919079
312.67186549999997,2.2757489309920325
312.33928810000003,-1.063948929395215
312.0079665,-0.156312675591449
311.6778931,-2.7671264799268562
311.34906010000003,0.12142328694345135
311.0214601,4.810627215617456
310.6950856,3.5449368777526087
310.369929,-0.04979348247163511
310.04598300000004,-1.9572143863289317
309.7232403,-2.3711215083130166
309.4016935,-0.3479825966337799
309.0813356,4.589746255392054
308.7621594,0.8939401621425714
308.4441577,-0.1714933877715254
308.1273236,0.55988118359971
307.8116501,2.180928804561085
307.49713019999996,4.24475867378538
307.18375710000004,-1.0658899345551485
306.871524,0.4163040340592051
306.5604242,1.2741403779284624
306.2504509,-3.0068872404419063
