wave,flux
1817.164934,3.566635283230992
1790.1022050000001,-12.359407883278056
1763.812741,3.3804707356517585
1738.2646949999998,3.384545937301496
1713.427949,46.88312113067092
1689.273995,997.6667215793348
1665.7758310000002,3444.318532026484
1642.907862,7239.569905550211
1620.64581,12580.593086261997
1598.9666300000001,19369.45973612
1577.8484310000001,27620.299255407514
1557.270407,37486.24078066659
1537.212767,48615.5380642895
1517.65668,59760.563744268846
1498.5842089999999,69843.49261684026
1479.978265,78992.85124988332
1461.822555,87007.02250238566
1444.101535,93999.07426162607
1426.800368,99915.29765497637
1409.904887,104783.39754259268
1393.401553,108794.79699895126
1377.2774220000001,112266.00879954216
1361.520115,115937.83638229409
1346.117782,119456.52369985214
1331.059081,123217.99021753244
1316.3331449999998,126798.3364338049
1301.92956,130282.8869495926
1287.838342,133928.2110761767
1274.049912,137490.7473749066
1260.5550779999999,141110.10801331466
1247.345017,144901.5959010057
1234.4112519999999,148704.63182642026
1221.74564,152699.96004382707
1209.340352,156645.31390840386
1197.187859,160716.21820705206
1185.28092,164970.74801016762
1173.612564,169045.9878338466
1162.1760800000002,173389.59798519325
1150.9650060000001,177399.39083290953
1139.973115,181703.09028550552
1129.194406,186000.28552476355
1118.623093,190050.7692300029
1108.253594,194634.04019650293
1098.0805269999998,199160.6165519411
1088.098695,203562.90931501577
1078.303081,208597.9586080795
1068.688841,213628.1186965099
1059.251295,219283.18647105087
1049.9859199999999,226128.76754941003
1040.8883449999998,234201.3591986213
1031.9543429999999,244219.0285411521
1023.1798259999999,255756.6826275313
1014.5608390000001,268609.5123784423
1006.0935529999999,283549.4328734266
997.774265,299837.26140089514
989.5993858999999,317231.9659650445
981.5654412999999,334931.9834865397
973.6690651,352880.73270035954
965.9069952,369909.88157066936
958.2760697000001,386309.1710246432
950.7732231000001,400649.60044783365
943.3954827,413831.50940798136
936.1399648,425035.7416663664
929.0038716,434598.4448431468
921.9844879000001,442698.938773586
915.0791782,449712.6499954128
908.2853836000002,455806.9973222278
901.6006193,462340.3731274269
895.0224714,469051.7087224133
888.548595,478743.4202027464
882.1767113,489839.91160979297
875.9046055,505531.4485971994
869.7301242999998,524141.6630859587
863.6511742999999,548389.8187408486
857.6657193,579705.0451059203
851.7717787,616414.379779298
845.9674256000001,662342.3060774816
840.2507849,717174.2534196682
834.6200316000001,781781.7881736647
829.0733892000001,857459.6092449449
823.6091279,945780.2531535084
818.2255633999999,1041156.8036841436
812.9210552000001,1144771.3039056195
807.694005,1253241.8120688123
802.5428559,1365652.3400812182
797.4660904,1472797.4833402191
792.4622299,1586027.2917040263
787.5298327,1705380.139097393
782.6674933999999,1836461.96472867
777.8738417999999,1997852.327819769
773.1475413,2199815.504955981
768.4872882999999,2455761.145704173
763.8918112000001,2761694.269960223
759.3598692,3112287.5693137688
754.8902515999999,3504464.012165682
750.4817767999999,3922725.810073938
746.1332914,4348862.7133586835
741.8436694000001,4758996.057864799
737.6118116,5117230.279264341
733.4366444,5407027.30592597
729.3171195,5642617.09476318
725.2522127999999,5813771.563673408
721.2409241,5928333.785916204
717.282276,5996802.243065425
713.3753136,6033246.308584103
709.5191037000001,6041519.939765332
705.7127343,6040458.2398094
701.9553139,6038476.219750362
698.2459709,6041648.243243302
694.5838534,6041116.796842455
690.9681281000001,6039265.516679789
687.3979803,6042350.503990843
683.8726131,6042415.751259839
680.3912472999999,6040887.287178433
676.9531202000001,6041700.46333239
673.557486,6043473.440795835
670.2036149,6040620.328265757
666.8907926,6040029.877428792
663.6183202999999,6042444.818776579
660.3855139,6041798.523063933
657.1917038,6042220.395086179
654.0362346,6041595.944622974
650.9184646000001,6041972.75943145
647.8377654,6041096.759103533
644.7935217999999,6040933.660309595
641.7851312999999,6043342.20017993
638.8120038,6040140.595294638
635.8735614,6042302.775002613
632.9692378999999,6043010.405158951
630.0984786,6041342.42275782
627.2607402000001,6041791.74890536
624.4554901,6042064.96100567
621.6822068,6042557.448380841
618.940379,6041229.9381110575
616.2295054,6041083.62720295
613.549095,6041555.272490033
610.8986664,6041045.993817411
608.2777476,6041582.2285003625
605.6858758999999,6040994.325827743
603.1225977000001,6041533.081264745
600.5874682,6041375.448580627
598.0800512,6041299.360634384
595.5999188999999,6041960.7073581265
593.1466518,6041580.854724866
590.7198384999999,6040926.0762307
588.3190752,6041639.36792506
585.943966,6041135.160057712
583.5941226,6041409.070372622
581.2691637,6041346.297025172
578.9687155,6041289.213618401
576.692411,6041667.4361430025
574.4398902,6041207.65769816
572.2107997,6040976.361368481
570.0047927,6041837.031558792
567.8215287,6041372.6296001775
565.6606737000001,6040859.040513253
563.5218996,6041414.888856045
561.4048845,6041723.895868298
559.3093121,6041314.912025487
557.2348721,6041424.403460568
555.1812597,6041738.592034662
553.1481756000001,6040880.247160612
551.1353259,6041371.113156312
549.1424218999999,6042119.4709286615
547.1691801,6041473.153905244
545.2153222000001,6041386.252215091
543.2805745000001,6041646.082272744
541.3646685,6041252.347043714
539.46734,6041292.408860537
537.5883299,6041165.883621715
535.7273833,6041451.723766176
533.8842498,6041267.8484496875
532.0586836,6041484.998182585
530.2504428000001,6041424.879321222
528.45929,6041806.4838812975
526.6849915,6041506.068538271
524.927318,6041124.959880866
523.186044,6041558.429706901
521.4609475999999,6041564.939664908
519.7518110000001,6041549.796277543
518.0584200000001,6041516.040878965
516.3805639,6041458.002116205
514.7180356,6040889.2800361365
513.0706316000001,6041583.92439341
511.43815149999995,6041146.135324777
509.82039860000003,6041418.695903634
508.2171791999999,6041330.822436489
506.628303,6041259.527395547
505.05358269999994,6041443.378119745
503.4928341,6040908.839676457
501.9458762,6041889.617928582
500.41253059999997,6041247.333091439
498.8926222,6041079.353647115
497.3859785,6042076.387176745
495.89242989999997,6041390.816341196
494.4118094,6041285.021598088
492.943953,6041509.598358522
491.488699,6041443.653448973
490.04588839999997,6041723.374936126
488.6153648,6041434.583809806
487.19697429999997,6041258.934403375
485.7905654,6041132.755671098
484.39598889999996,6041676.187981801
483.01309800000007,6041344.647363222
481.64174840000004,6041248.72234281
480.28179789999996,6041676.163836657
478.93310639999993,6041419.814052309
477.59553619999997,6041865.895648093
476.2689517,6041451.4275349965
474.9532192,6040885.66555563
473.6482074,6041491.38075226
472.35378679999997,6041373.594745825
471.06982989999995,6041049.0191167025
469.79621110000005,6041374.285278639
468.53280700000005,6041649.5549534075
467.2794956999999,6041671.6224728525
466.0361575,6041327.553638957
464.80267410000005,6041129.1082366975
463.5789295,6041230.052895053
462.364809,6041070.583370447
461.1601998,6041007.551102586
459.9649909,6041660.191804143
458.7790727,6041087.806627872
457.6023374,6041010.247078933
456.4346788,6041262.42602474
455.2759921,6041192.75647574
454.12617439999997,6041347.35181916
452.9851239,6041529.706277862
451.85274060000006,6041672.539734161
450.7289258,6041465.238866585
449.6135822,6041138.72948778
448.5066141,6041848.238892375
447.407927,6041229.7442628015
446.317428,6041624.946460033
445.23502520000005,6041395.921784597
444.1606283,6040931.649635757
443.0941482,6041545.0585089
442.03549699999996,6040823.688674153
440.9845882,6041374.8871728275
439.9413364,6041609.090700302
438.9056575,6041182.814344675
437.87746860000004,6041116.735921816
436.85668780000003,6041706.295878365
435.8432345,6041257.241338484
434.83702930000004,6041326.343685531
433.83799369999997,6041599.667659824
432.84605039999997,6041235.811721781
431.8611232,6041628.859187072
430.8831369,6040984.245768487
429.9120175,6040562.580253879
428.94769169999995,6037649.279030471
427.9900874,6030442.547148685
427.03913370000004,6020095.215088063
426.0947602,6004979.70937646
425.1568978,5984344.4141136585
424.22547829999996,5957260.81654032
423.3004343,5925211.009118424
422.3816994,5889138.806786541
421.4692081,5852371.222830983
420.56289569999996,5816138.916225117
419.66269850000003,5782391.777763473
418.7685535,5752087.0955906
417.8803987,5725930.391011775
416.9981727,5702986.372047756
416.12181519999996,5682868.399095756
415.25126639999996,5662377.804237897
414.38646760000006,5638270.222947569
413.5273605,5608055.398864551
412.673888,5569082.703859744
411.8259934,5518560.60485639
410.9836208,5455900.83322141
410.14671519999996,5379372.5712579265
409.3152221,5289040.426767922
408.48908789999996,5185856.9142697165
407.66825960000006,5068927.581735669
406.8526847,4939309.141572024
406.0423117,4797681.513091905
405.2370896,4644882.948614968
404.43696800000004,4482041.611168523
403.64189730000004,4310474.293542487
402.8518283,4132527.2368911942
402.0667126,3949243.034420717
401.28650239999996,3765080.303483825
400.5111505,3582033.974851095
399.7406101,3403656.6721027535
398.9748353,3232504.965303886
398.2137806,3070090.740049436
397.457401,2919383.126317588
396.7056521,2782092.0124761546
395.9584903,2658531.017219789
395.2158722,2548804.1355619514
394.4777551,2451161.908406073
393.7440968,2365822.8860432627
393.0148555,2290369.3896287484
392.2899901,2222796.4649698297
391.56946,2160242.223641965
390.853225,2100664.6304709357
390.1412452,2041486.6582450462
389.43348169999996,1980339.596945743
388.7298955,1915798.4748203969
388.03044839999995,1846778.2548421668
387.3351027,1773183.9637438369
386.6438209,1694628.6689242108
385.95656610000003,1611761.9037768163
385.2733019,1525885.52264956
384.5939922,1437259.0297153932
383.9186014,1347873.4604180374
383.2470943,1258193.7402113131
382.5794362,1169442.8544672122
381.9155926,1082160.346721932
381.2555296,997170.5713528964
380.59921360000004,914520.8967857944
379.9466115,835239.2607114213
379.29769039999996,759108.0557358031
378.652418,687267.7672023952
378.0107622,619582.2462244347
377.37269130000004,556574.3799454736
376.73817410000004,498611.0178977613
376.1071796,445992.64224994846
375.47967719999997,398723.8321988324
374.8556368,356885.30645554524
374.2350283,320491.2096669736
373.6178223,289047.4401896143
373.0039896,262075.77796008985
372.3935012,239116.40504585663
371.78632860000005,219714.75966100476
371.1824436,203345.4679374556
370.5818182,189440.57115215636
369.98442489999996,177566.44712119375
369.39023629999997,167368.55614008935
368.7992255,158493.44779736074
368.2113658,150618.3887499421
367.6266307,143635.4540805033
367.0449943,137372.41468687778
366.4664305,131671.20382702714
365.89091410000003,126444.6189554144
365.3184196,121544.29039020227
364.7489221,116975.03503090874
364.18239689999996,112580.62119565606
363.61881960000005,108394.8530628717
363.058166,104352.84008798744
362.50041219999997,100365.22052230316
361.94553460000003,96481.27072690963
361.3935098,92684.07160374583
360.8443147,89009.51211939646
360.29792630000003,85398.76685314313
359.754322,81954.4720178533
359.2134795,78646.85174502111
358.6753765,75496.82305205544
358.1399912,72486.36097761022
357.6073018,69586.57826492412
357.077287,66776.77223656871
356.5499253,64022.22335028576
356.025196,61339.740866301785
355.50307799999996,58684.32103112224
354.983551,56093.3825918524
354.4665945,53534.5194295808
353.95218839999995,51021.944635775304
353.4403127,48575.942898418005
352.9309478,46253.46910952415
352.42407410000004,44038.982250838046
351.9196722,41917.71402439885
351.4177232,39868.18932385489
350.91820789999997,37896.94753179888
350.4211078,35999.42010363101
349.9264043,34168.49337261853
349.434079,32392.111154738584
348.9441137,30658.994932134337
348.45649060000005,28971.75282264281
347.97119169999996,27335.43908946328
347.48819960000003,25762.681946962108
347.0074967,24252.376826413263
346.5290657,22800.57777039908
346.0528897,21387.491891806832
345.5789517,20025.246840604883
345.1072349,18737.786698148666
344.6377228,17507.473889617813
344.17039889999995,16329.272016537792
343.70524710000007,15215.801788100582
343.24225110000003,14187.075319266633
342.7813952,13227.3101704408
342.32266339999995,12359.27883758697
341.8660403,11557.588791753356
341.4115102,10812.125047716916
340.959058,10125.823122257134
340.5086685,9504.043097147829
340.06032660000005,8935.368158585605
339.6140175,8398.465668703155
339.1697264,7897.678952547238
338.7274388,7407.973504353701
338.28714019999995,6937.979060812148
337.8488164,6505.691041859279
337.41245310000005,6060.824988603048
336.9780363,5616.441870651597
336.5455522,5165.958879925161
336.114987,4723.251291617413
335.686327,4296.377192780091
335.2595588,3891.446178224618
334.834669,3487.2036988360155
334.4116443,3102.7630437370826
333.9904716,2730.650370786299
333.57113799999996,2402.181200479597
333.1536305,2097.6854164335973
332.73793639999997,1820.386447740893
332.32404310000004,1560.1184254481439
331.91193799999996,1321.8304643133376
331.5016088,1106.7861600553979
331.0930432,920.8269429001317
330.6862289,751.8536383303688
330.281154,604.9330556408426
329.8778065,468.66563225755584
329.47617460000004,354.5847768225945
329.07624649999997,249.94190104224162
328.6780106,175.2394004065406
328.2814555,115.43456220850729
327.88656960000003,73.44931637533169
327.4933418,36.232942071721375
327.1017607,16.448523734352364
326.7118154,6.850774550518216
326.32349480000005,-2.626750275372135
325.93678789999996,-8.617193332206933
325.5516841,1.4398548546167889
325.16817260000005,0.5938470468013484
324.7862428,-2.5992935566795468
324.40588419999995,0.922772215158529
324.0270864,0.4053421384057816
323.649839,2.7590835747908606
323.2741319,3.720113340055241
322.8999548,-0.8721365967640718
322.5272977,-1.5439782813750993
322.1561508,-2.632720768408248
321.786504,1.0978777189382614
321.4183476,-2.6792326161659648
321.0516719,1.6555288885357016
320.6864673,3.7943471382969696
320.3227243,-3.078424601532322
319.96043330000003,-3.2059927721096546
319.5995851,-4.513798277434002
319.2401704,-0.0868482498237741
318.8821799,0.13123387362569033
318.5256045,-3.4632453050819687
318.1704352,1.5625068194285885
317.8166631,2.1532367592980663
317.4642791,4.244500147237576
317.1132746,0.2198378037778841
316.76364069999994,-1.4593932597590058
316.4153688,3.7033267319485454
316.06845039999996,-2.9879682648823707
315.72287689999996,0.13124808385554906
315.37863980000003,3.051152304482886
315.0357308,-3.043075374825189
314.6941415,-2.5477011917517234
314.3538639,1.4141000223638303
314.0148896,0.504395755313942
313.6772106,2.230707499746308
313.3408189,3.2959301498243034
313.00570639999995,-0.940473125170223
312.67186549999997,-0.5652395454938305
312.33928810000003,4.430439125152738
312.0079665,-1.3168972160836938
311.6778931,-2.2783820412537623
311.34906010000003,-0.4209286152121729
311.0214601,-2.6895613901321296
310.6950856,0.6239831966217576
310.369929,1.2227568309154595
310.04598300000004,4.090291630474052
309.7232403,1.3043774092985054
309.4016935,-0.8217786021491197
309.0813356,2.467049716750654
308.7621594,2.9616947479267317
308.4441577,-2.8507126927530715
308.1273236,-0.5788165402507438
307.8116501,2.3430830154682365
307.49713019999996,-0.9046087739816024
307.18375710000004,-2.7430138413086484
306.871524,1.0026129922418494
306.5604242,-2.0598210425173558
306.2504509,1.6387325563798592
