wave,flux
1817.164934,-18.78543607691787
1790.1022050000001,-20.414272486485935
1763.812741,28.84737181188606
1738.2646949999998,123.53914991028894
1713.427949,349.8453216673477
1689.273995,1411.2720421138822
1665.7758310000002,3630.708075918321
1642.907862,7336.007505337632
1620.64581,12552.684572338476
1598.9666300000001,19487.78881084328
1577.8484310000001,28342.576099206402
1557.270407,39007.36864574642
1537.212767,51651.34788833755
1517.65668,65133.930770115374
1498.5842089999999,78969.85587674503
1479.978265,92765.14334175136
1461.822555,106436.27477247662
1444.101535,119854.49984739779
1426.800368,132682.17819118928
1409.904887,144807.15796883163
1393.401553,156115.02210703562
1377.2774220000001,167173.59452708042
1361.520115,177707.99953282348
1346.117782,187856.5252596106
1331.059081,197368.89073379512
1316.3331449999998,206287.07251262254
1301.92956,214560.93211061886
1287.838342,221787.7472969937
1274.049912,228383.9385958436
1260.5550779999999,234204.734875525
1247.345017,239493.4385828056
1234.4112519999999,244101.06308953854
1221.74564,248312.5851214317
1209.340352,252365.99132754642
1197.187859,256329.83975393142
1185.28092,260075.49489432684
1173.612564,263972.97753927176
1162.1760800000002,268055.7118823157
1150.9650060000001,272174.9210864873
1139.973115,276751.94780880125
1129.194406,281205.1829093239
1118.623093,285676.3115659777
1108.253594,290788.8365528354
1098.0805269999998,295604.5305680999
1088.098695,300906.69968094147
1078.303081,306342.5219477325
1068.688841,312293.7513087504
1059.251295,318862.9044766211
1049.9859199999999,326632.40111730987
1040.8883449999998,335947.4986460211
1031.9543429999999,346585.93905031326
1023.1798259999999,359105.27343723463
1014.5608390000001,373784.2934083131
1006.0935529999999,390589.1048048231
997.774265,409294.54302972154
989.5993858999999,429944.9048348028
981.5654412999999,451966.3851823018
973.6690651,475019.33432981384
965.9069952,498661.2871383021
958.2760697000001,521593.9388466359
950.7732231000001,544677.1711901993
943.3954827,566614.3112295932
936.1399648,587503.4123235479
929.0038716,607207.623364831
921.9844879000001,625561.2181977804
915.0791782,643063.7215755904
908.2853836000002,659217.3676587306
901.6006193,674584.4896974496
895.0224714,691003.076178979
888.548595,707854.7124699631
882.1767113,726993.37102529
875.9046055,747285.2215836219
869.7301242999998,771681.8245352758
863.6511742999999,801239.8212979254
857.6657193,835420.1158289763
851.7717787,875876.7068838483
845.9674256000001,925971.648468752
840.2507849,986120.139481348
834.6200316000001,1055514.5070838255
829.0733892000001,1141190.0645712407
823.6091279,1235558.8821007223
818.2255633999999,1346891.082090992
812.9210552000001,1471032.5332038119
807.694005,1603679.6331440844
802.5428559,1746994.08843388
797.4660904,1899984.8978622754
792.4622299,2063026.7350133727
787.5298327,2240080.3591299662
782.6674933999999,2439169.95952983
777.8738417999999,2670115.5564713418
773.1475413,2937126.8614047607
768.4872882999999,3236382.356355418
763.8918112000001,3561527.91597244
759.3598692,3914157.4882521937
754.8902515999999,4280313.29428046
750.4817767999999,4640656.502029594
746.1332914,4985749.5691874465
741.8436694000001,5285295.5577312615
737.6118116,5524425.81002138
733.4366444,5717542.967479943
729.3171195,5853673.082770977
725.2522127999999,5954451.960526321
721.2409241,6008058.597709361
717.282276,6035138.445503979
713.3753136,6043236.871875791
709.5191037000001,6039938.525226621
705.7127343,6041644.406062955
701.9553139,6042603.051294203
698.2459709,6044712.598310046
694.5838534,6041136.227085021
690.9681281000001,6041508.725771252
687.3979803,6041592.15836346
683.8726131,6040787.633414861
680.3912472999999,6041550.294594219
676.9531202000001,6040146.977964508
673.557486,6043791.177270305
670.2036149,6041623.1898641735
666.8907926,6040543.2062970875
663.6183202999999,6044246.841912536
660.3855139,6042147.190854007
657.1917038,6041781.231080405
654.0362346,6041591.390401913
650.9184646000001,6039261.67937075
647.8377654,6039752.883722999
644.7935217999999,6040732.115862822
641.7851312999999,6040152.293946199
638.8120038,6042250.2910937965
635.8735614,6041459.544815866
632.9692378999999,6040586.212783231
630.0984786,6041460.754447648
627.2607402000001,6040424.360104577
624.4554901,6042391.290841655
621.6822068,6039737.151807083
618.940379,6041356.688590403
616.2295054,6041363.797568887
613.549095,6041601.6531734085
610.8986664,6041439.348024038
608.2777476,6041249.073609076
605.6858758999999,6041165.82532769
603.1225977000001,6041256.155730928
600.5874682,6040903.410060722
598.0800512,6041572.655214342
595.5999188999999,6041052.691439725
593.1466518,6041422.460860396
590.7198384999999,6041013.653721756
588.3190752,6041178.1833992675
585.943966,6041008.808739143
583.5941226,6041505.974582883
581.2691637,6041515.719387297
578.9687155,6041195.824224718
576.692411,6041098.292514633
574.4398902,6041302.352197535
572.2107997,6041725.466253017
570.0047927,6041271.835863137
567.8215287,6041489.15607675
565.6606737000001,6041590.122289387
563.5218996,6041453.034812226
561.4048845,6040613.915315209
559.3093121,6041590.140448112
557.2348721,6041891.260883978
555.1812597,6041359.709706717
553.1481756000001,6041413.525185668
551.1353259,6041239.807728617
549.1424218999999,6040727.121741205
547.1691801,6041200.15348051
545.2153222000001,6041131.4490514025
543.2805745000001,6041319.901537109
541.3646685,6041134.718345228
539.46734,6041702.781601127
537.5883299,6041623.598285722
535.7273833,6041350.358052287
533.8842498,6041297.276044668
532.0586836,6041262.823055709
530.2504428000001,6041310.781559068
528.45929,6041329.805017785
526.6849915,6041304.979009624
524.927318,6041582.849103015
523.186044,6041243.703080658
521.4609475999999,6040942.424976188
519.7518110000001,6041390.742090193
518.0584200000001,6041215.469627744
516.3805639,6041468.966166628
514.7180356,6040993.503880013
513.0706316000001,6041258.072854909
511.43815149999995,6041295.609483665
509.82039860000003,6041607.130388555
508.2171791999999,6041394.729310771
506.628303,6041322.0235024085
505.05358269999994,6041988.395580644
503.4928341,6041699.610880382
501.9458762,6041261.892428597
500.41253059999997,6041293.453879039
498.8926222,6041272.208192242
497.3859785,6041649.810246055
495.89242989999997,6041461.649699489
494.4118094,6041686.775559464
492.943953,6041486.102039548
491.488699,6041146.825172422
490.04588839999997,6041713.358562312
488.6153648,6041287.126982894
487.19697429999997,6041516.0354358135
485.7905654,6041566.039295917
484.39598889999996,6041541.6285627475
483.01309800000007,6041134.461637613
481.64174840000004,6041346.806140012
480.28179789999996,6041386.666744245
478.93310639999993,6041500.216229778
477.59553619999997,6041247.65048296
476.2689517,6041525.334896525
474.9532192,6041753.307103184
473.6482074,6041624.402740077
472.35378679999997,6041250.973031895
471.06982989999995,6041789.407755697
469.79621110000005,6041716.482278047
468.53280700000005,6041183.4384225765
467.2794956999999,6041293.207166484
466.0361575,6041610.61787565
464.80267410000005,6041342.435358603
463.5789295,6039517.269724422
462.364809,6033079.9950925065
461.1601998,6018150.261526484
459.9649909,5992954.703671971
458.7790727,5953843.969635458
457.6023374,5899687.209364237
456.4346788,5828411.747996806
455.2759921,5739090.725528419
454.12617439999997,5632932.965479707
452.9851239,5516451.924372245
451.85274060000006,5395318.002932943
450.7289258,5274250.652918627
449.6135822,5159549.780721175
448.5066141,5056951.971333435
447.407927,4969983.3691433165
446.317428,4904716.481007209
445.23502520000005,4863889.36135819
444.1606283,4848074.993575074
443.0941482,4857171.631170499
442.03549699999996,4889066.528312891
440.9845882,4941122.7766925655
439.9413364,5006330.201937694
438.9056575,5077801.928047913
437.87746860000004,5146421.000418167
436.85668780000003,5202657.227418515
435.8432345,5236302.054119393
434.83702930000004,5238871.726609111
433.83799369999997,5204413.768414813
432.84605039999997,5131371.46333726
431.8611232,5019786.622811635
430.8831369,4876516.662882885
429.9120175,4707475.039700056
428.94769169999995,4523581.741676567
427.9900874,4336048.4881470315
427.03913370000004,4155098.421789384
426.0947602,3989185.3392385477
425.1568978,3844474.568306846
424.22547829999996,3723374.707014767
423.3004343,3625028.536585789
422.3816994,3546620.4007393275
421.4692081,3483105.7439213917
420.56289569999996,3427600.7428633873
419.66269850000003,3373279.302392365
418.7685535,3315035.273037212
417.8803987,3247324.686571035
416.9981727,3166920.7028491143
416.12181519999996,3071826.0146710607
415.25126639999996,2962066.7112115817
414.38646760000006,2839528.136177878
413.5273605,2705583.3048737305
412.673888,2563597.2909196303
411.8259934,2417228.696915204
410.9836208,2269477.882009172
410.14671519999996,2122908.85155365
409.3152221,1979733.181682864
408.48908789999996,1841293.785798989
407.66825960000006,1708584.7559177834
406.8526847,1581467.717737823
406.0423117,1459626.5080800094
405.2370896,1342798.1928104945
404.43696800000004,1230551.1743413513
403.64189730000004,1122145.722063092
402.8518283,1018130.5877582406
402.0667126,918631.3106416605
401.28650239999996,824247.4021171548
400.5111505,735771.5467009657
399.7406101,653771.0416367515
398.9748353,578950.4175821085
398.2137806,511749.0037064586
397.457401,452207.0846534851
396.7056521,400460.81023398455
395.9584903,356097.49017009704
395.2158722,318418.6418882236
394.4777551,286810.28197190014
393.7440968,260415.07338008692
393.0148555,238800.1745827511
392.2899901,220797.24563770925
391.56946,205953.2266756914
390.853225,193567.47936206943
390.1412452,183073.5125491496
389.43348169999996,174060.45423748624
388.7298955,166159.30514889755
388.03044839999995,159094.80766633883
387.3351027,152509.65681782414
386.6438209,146427.92768973586
385.95656610000003,140655.00957244216
385.2733019,135176.23223525062
384.5939922,129926.65175900402
383.9186014,124930.78760893404
383.2470943,120224.06922306171
382.5794362,115664.66721541801
381.9155926,111383.1811263287
381.2555296,107274.9318530266
380.59921360000004,103326.64003080798
379.9466115,99553.82365907225
379.29769039999996,95958.71411060936
378.652418,92465.01498523664
378.0107622,89064.40397562801
377.37269130000004,85702.32931852019
376.73817410000004,82428.62651155906
376.1071796,79249.19645738258
375.47967719999997,76091.18072913517
374.8556368,72990.6370765934
374.2350283,69915.93764685428
373.6178223,66912.8221414333
373.0039896,63956.16891301718
372.3935012,61101.285303141136
371.78632860000005,58361.194928935554
371.1824436,55675.34270964288
370.5818182,53119.82537778791
369.98442489999996,50713.62635131184
369.39023629999997,48409.45039712959
368.7992255,46220.39923135852
368.2113658,44142.547664407684
367.6266307,42124.80714496619
367.0449943,40223.26079597259
366.4664305,38418.245048655066
365.89091410000003,36685.20361716615
365.3184196,35019.39429984982
364.7489221,33393.354742994314
364.18239689999996,31800.11683426038
363.61881960000005,30223.313913456317
363.058166,28679.73968405425
362.50041219999997,27116.404718943984
361.94553460000003,25571.411005070528
361.3935098,24024.024501356558
360.8443147,22490.04359218747
360.29792630000003,21014.106598347462
359.754322,19633.88007919543
359.2134795,18364.49126063579
358.6753765,17199.168709102483
358.1399912,16155.552682946172
357.6073018,15228.89472777932
357.077287,14400.253193090772
356.5499253,13637.793678918311
356.025196,12920.172813399957
355.50307799999996,12220.7126208485
354.983551,11531.621652062093
354.4665945,10830.281558736213
353.95218839999995,10096.541384887225
353.4403127,9358.416834508089
352.9309478,8632.14172985374
352.42407410000004,7917.915303232034
351.9196722,7225.575110845555
351.4177232,6561.380423194922
350.91820789999997,5922.620327023418
350.4211078,5311.802643358006
349.9264043,4749.406244321509
349.434079,4232.949608434273
348.9441137,3759.240274440221
348.45649060000005,3330.4486977183315
347.97119169999996,2922.467646687644
347.48819960000003,2547.009078096521
347.0074967,2196.708258400339
346.5290657,1891.0636089436407
346.0528897,1607.0031444825302
345.5789517,1345.724625826411
345.1072349,1092.8541258787834
344.6377228,855.8885749626904
344.17039889999995,655.2315762338675
343.70524710000007,488.26579051644507
343.24225110000003,350.6279245640208
342.7813952,237.5967695697696
342.32266339999995,150.0011624651826
341.8660403,88.24058873207694
341.4115102,46.160129058904324
340.959058,27.961464510690952
340.5086685,12.798176681264605
340.06032660000005,-0.7997573014486257
339.6140175,10.475033791236807
339.1697264,0.2025045661088808
338.7274388,-1.177752441671606
338.28714019999995,1.7578648087664288
337.8488164,-0.6971054812984975
337.41245310000005,-1.944942556905032
336.9780363,0.8527843540141695
336.5455522,1.2138969498835612
336.114987,-4.185632805536171
335.686327,-3.3305241086662933
335.2595588,0.7775270466139396
334.834669,0.6621337385071564
334.4116443,-0.8939350640047099
333.9904716,2.627141305346313
333.57113799999996,-2.65406914797557
333.1536305,1.8803333684160992
332.73793639999997,-1.2655449899132698
332.32404310000004,-0.8108089202200524
331.91193799999996,-1.9265350517181417
331.5016088,0.3240572973356596
331.0930432,2.2357901051237214
330.6862289,5.570138496267488
330.281154,-2.162378182173635
329.8778065,1.5050417310011912
329.47617460000004,1.0042228750515936
329.07624649999997,-0.056475689264881175
328.6780106,0.8867835997091406
328.2814555,-2.2358764883325977
327.88656960000003,2.311665493495751
327.4933418,-1.4376234682706284
327.1017607,-0.929998199576558
326.7118154,-0.584742086192447
326.32349480000005,-1.1380805137640493
325.93678789999996,-3.1762432144348987
325.5516841,-4.267710287619246
325.16817260000005,7.142747127643451
324.7862428,0.2113814783645385
324.40588419999995,3.0134405441588163
324.0270864,1.839967612768032
323.649839,-3.239684292438913
323.2741319,-0.9760214661811702
322.8999548,2.3461193436600265
322.5272977,3.2219839762913596
322.1561508,-0.9226909612501658
321.786504,-0.5428127452163185
321.4183476,-0.5242907196243157
321.0516719,0.5685272044365254
320.6864673,-0.9935671102013792
320.3227243,-3.882834929504517
319.96043330000003,-0.8538805184273032
319.5995851,0.8389495018343858
319.2401704,0.9173179726477064
318.8821799,-2.3396247317837666
318.5256045,1.4327394248976841
318.1704352,0.9907793278505144
317.8166631,0.2678258482246642
317.4642791,0.7148584984986074
317.1132746,1.4166915111838785
316.76364069999994,0.051634854118684084
316.4153688,-1.8658587368429709
316.06845039999996,-0.27579016961890185
315.72287689999996,1.920966292688992
315.37863980000003,-0.2877531130369733
315.0357308,-1.6404298732842233
314.6941415,0.5417212709430769
314.3538639,-3.347518646533709
314.0148896,0.6104457916920498
313.6772106,-0.3328293640850564
313.3408189,-0.01944941105507566
313.00570639999995,3.6918086832363253
312.67186549999997,0.3055303593354429
312.33928810000003,1.7992050206499908
312.0079665,0.021517162078363936
311.6778931,-0.3371239467653553
311.34906010000003,-0.342615299008414
311.0214601,1.7318187924313415
310.6950856,-3.1556777928131368
310.369929,3.0203105993509767
310.04598300000004,-2.8613431050135225
309.7232403,-1.380786421121042
309.4016935,-3.983819159415845
309.0813356,-2.5648073960221294
308.7621594,1.4819614841355786
308.4441577,-2.2120117019560834
308.1273236,1.82382854308096
307.8116501,3.1763532379489576
307.49713019999996,1.6549505967422924
307.18375710000004,1.6330065935066698
306.871524,-0.5491816121718892
306.5604242,-4.718358608107988
306.2504509,0.4535101049224674
