wave,flux
1817.164934,0.33618591751009874
1790.1022050000001,7.731217074177129
1763.812741,-2.8998487843947234
1738.2646949999998,33.30087959202338
1713.427949,80.37897971268058
1689.273995,250.040957400249
1665.7758310000002,606.1503454078677
1642.907862,1171.9717613391313
1620.64581,2025.2194091928438
1598.9666300000001,3185.081818449773
1577.8484310000001,4654.3967534750955
1557.270407,6518.4783055842245
1537.212767,8760.702204578683
1517.65668,11241.122181822693
1498.5842089999999,13921.07995947803
1479.978265,16662.55708216854
1461.822555,19573.137429804625
1444.101535,22501.875348009893
1426.800368,25436.26944458707
1409.904887,28298.3018178033
1393.401553,31096.65424007856
1377.2774220000001,33887.15618875885
1361.520115,36663.43077138873
1346.117782,39409.37486064549
1331.059081,42143.34661702415
1316.3331449999998,44924.92839734389
1301.92956,47621.27323733823
1287.838342,50374.19735452714
1274.049912,53163.15808327148
1260.5550779999999,55918.85078444568
1247.345017,58658.638359493896
1234.4112519999999,61421.90477950588
1221.74564,64150.167615514765
1209.340352,66789.78832227268
1197.187859,69329.87436995786
1185.28092,71887.20062450312
1173.612564,74394.58748087211
1162.1760800000002,76843.54123328014
1150.9650060000001,79374.38337697003
1139.973115,81960.51016648111
1129.194406,84573.18933597468
1118.623093,87482.08584674935
1108.253594,90496.26995003682
1098.0805269999998,93729.96939350352
1088.098695,97090.14970044878
1078.303081,100675.65857068449
1068.688841,104481.63115520217
1059.251295,108424.33673609016
1049.9859199999999,112579.10072952397
1040.8883449999998,117115.0342651175
1031.9543429999999,121858.5918824396
1023.1798259999999,126925.78557824051
1014.5608390000001,132372.95980546426
1006.0935529999999,138347.7396684601
997.774265,144717.1002003651
989.5993858999999,151326.96511859796
981.5654412999999,158302.76412846628
973.6690651,165673.10224552682
965.9069952,173130.02466511965
958.2760697000001,180793.9895758268
950.7732231000001,188695.918129072
943.3954827,196463.1566209011
936.1399648,204076.33577863488
929.0038716,211557.40825191984
921.9844879000001,219214.84296928465
915.0791782,226520.93341183304
908.2853836000002,233504.0097089018
901.6006193,240952.04104465534
895.0224714,248258.63350044496
888.548595,255684.9606453125
882.1767113,263482.3195608889
875.9046055,271743.7038745783
869.7301242999998,281076.8779463407
863.6511742999999,290444.9270817478
857.6657193,301326.04713960545
851.7717787,313984.57305278897
845.9674256000001,327673.0635196718
840.2507849,343166.23193025275
834.6200316000001,361344.0452755147
829.0733892000001,381339.503745211
823.6091279,404463.98443650646
818.2255633999999,428932.0552238672
812.9210552000001,457613.4855009469
807.694005,487462.1436058093
802.5428559,519618.621468461
797.4660904,554558.4189465102
792.4622299,590535.9158695805
787.5298327,632006.6076255428
782.6674933999999,676467.485957859
777.8738417999999,726866.3889138544
773.1475413,784447.7779726117
768.4872882999999,855465.8654929963
763.8918112000001,938946.9549883902
759.3598692,1042285.5147020924
754.8902515999999,1162456.0852783343
750.4817767999999,1303762.3639396098
746.1332914,1469430.921749207
741.8436694000001,1654770.617612655
737.6118116,1856049.978204553
733.4366444,2070480.7557601503
729.3171195,2298282.2600104343
725.2522127999999,2529691.4663288305
721.2409241,2772834.2242031754
717.282276,3023681.84157432
713.3753136,3296621.778165241
709.5191037000001,3581040.6489308844
705.7127343,3874786.8280613865
701.9553139,4176443.1317598033
698.2459709,4480283.394642642
694.5838534,4784440.995642967
690.9681281000001,5073582.4737538975
687.3979803,5336180.493371067
683.8726131,5547348.695968629
680.3912472999999,5718682.166175042
676.9531202000001,5845722.411595789
673.557486,5937905.419692169
670.2036149,5999298.852196255
666.8907926,6031035.314489518
663.6183202999999,6041679.217000867
660.3855139,6041584.545515267
657.1917038,6041675.141039532
654.0362346,6038956.876477232
650.9184646000001,6039997.327087697
647.8377654,6041463.042906648
644.7935217999999,6040460.02778923
641.7851312999999,6040888.328215414
638.8120038,6042481.505461291
635.8735614,6040202.213500064
632.9692378999999,6042861.827626471
630.0984786,6041197.778495639
627.2607402000001,6039969.011222754
624.4554901,6040524.394836603
621.6822068,6040899.81013631
618.940379,6040949.5958994115
616.2295054,6041067.257407772
613.549095,6041263.179768558
610.8986664,6041457.511347284
608.2777476,6041352.480380232
605.6858758999999,6041525.365708595
603.1225977000001,6041505.890698456
600.5874682,6041344.856318281
598.0800512,6041238.372260302
595.5999188999999,6041443.233785057
593.1466518,6041101.435124502
590.7198384999999,6040974.6912422385
588.3190752,6041356.2033201
585.943966,6041585.7768405285
583.5941226,6041598.59265808
581.2691637,6041409.25475485
578.9687155,6041538.106471896
576.692411,6041109.109355971
574.4398902,6041076.237107754
572.2107997,6041485.471532085
570.0047927,6041217.510428282
567.8215287,6041549.028525283
565.6606737000001,6041303.369072895
563.5218996,6041623.94244088
561.4048845,6041527.09119078
559.3093121,6041309.404281447
557.2348721,6041168.024514478
555.1812597,6041519.650974227
553.1481756000001,6041622.282505925
551.1353259,6041477.162890337
549.1424218999999,6041463.572540197
547.1691801,6041384.2501357375
545.2153222000001,6041424.7425814485
543.2805745000001,6041191.132788204
541.3646685,6041365.517954897
539.46734,6041429.876780043
537.5883299,6041823.845582301
535.7273833,6041290.628707365
533.8842498,6041602.743903757
532.0586836,6041546.423424187
530.2504428000001,6041452.681869647
528.45929,6041656.654107663
526.6849915,6041557.087924275
524.927318,6041168.043641295
523.186044,6041571.240962345
521.4609475999999,6041356.553417861
519.7518110000001,6041366.236349842
518.0584200000001,6041799.1169053875
516.3805639,6041633.158694991
514.7180356,6040974.437607613
513.0706316000001,6041214.284579319
511.43815149999995,6041502.757166138
509.82039860000003,6041247.346383503
508.2171791999999,6041274.943260727
506.628303,6041528.914429268
505.05358269999994,6041218.962833206
503.4928341,6041610.203546871
501.9458762,6041403.0508894175
500.41253059999997,6041385.757910805
498.8926222,6040772.902056767
497.3859785,6041229.84195175
495.89242989999997,6041590.754040107
494.4118094,6041814.051017026
492.943953,6041723.31066634
491.488699,6041013.299753069
490.04588839999997,6041753.972464412
488.6153648,6041306.647105671
487.19697429999997,6041507.2667428935
485.7905654,6041386.933268688
484.39598889999996,6041814.774463288
483.01309800000007,6041285.582969598
481.64174840000004,6041397.695399958
480.28179789999996,6041323.0503368825
478.93310639999993,6041525.210918492
477.59553619999997,6041538.390811749
476.2689517,6041244.864598158
474.9532192,6041088.670690767
473.6482074,6041447.513701787
472.35378679999997,6040922.22484036
471.06982989999995,6041460.8846340785
469.79621110000005,6041749.467324995
468.53280700000005,6041247.317149125
467.2794956999999,6041275.428521446
466.0361575,6041485.392632276
464.80267410000005,6041371.929990987
463.5789295,6039217.411740928
462.364809,6031527.277793399
461.1601998,6014582.933163757
459.9649909,5986029.231901476
458.7790727,5942585.404277237
457.6023374,5880552.315633868
456.4346788,5797870.830863613
455.2759921,5690427.95744093
454.12617439999997,5561793.441428235
452.9851239,5413488.7818360925
451.85274060000006,5250038.880978169
450.7289258,5073988.276572652
449.6135822,4889195.107188792
448.5066141,4699225.743435903
447.407927,4506535.982653644
446.317428,4315312.089986287
445.23502520000005,4126085.704307231
444.1606283,3938948.7806945713
443.0941482,3754093.7043649335
442.03549699999996,3571165.8181129345
440.9845882,3390447.952695838
439.9413364,3211447.257486035
438.9056575,3033659.7425332507
437.87746860000004,2857559.84022987
436.85668780000003,2681557.578696643
435.8432345,2506153.590709988
434.83702930000004,2331048.593295656
433.83799369999997,2156684.2686234107
432.84605039999997,1984413.06078608
431.8611232,1814472.3053121048
430.8831369,1648866.5479469625
429.9120175,1489369.848478514
428.94769169999995,1337650.8062547096
427.9900874,1195757.1006808274
427.03913370000004,1065361.4490398334
426.0947602,947353.4141125124
425.1568978,842445.6681737284
424.22547829999996,750932.0343996747
423.3004343,672322.1089694336
422.3816994,605557.4726234067
421.4692081,549897.1558710843
420.56289569999996,503455.63047166273
419.66269850000003,464902.0460163471
418.7685535,433000.7266361748
417.8803987,405949.04145035625
416.9981727,382949.08918198734
416.12181519999996,362962.3862591392
415.25126639999996,345095.0737704441
414.38646760000006,328919.50405111205
413.5273605,313940.49094817776
412.673888,299990.957727946
411.8259934,286787.5871212609
410.9836208,274295.5350698497
410.14671519999996,262525.86467565945
409.3152221,251371.73565648161
408.48908789999996,240839.43055456574
407.66825960000006,230905.58517888692
406.8526847,221567.26995723933
406.0423117,212767.065831426
405.2370896,204441.41064333986
404.43696800000004,196512.22712813676
403.64189730000004,188937.77946238272
402.8518283,181702.456805146
402.0667126,174657.2210248431
401.28650239999996,167833.24082591414
400.5111505,161154.17564426694
399.7406101,154630.5936118103
398.9748353,148214.51650161017
398.2137806,141930.15097111574
397.457401,135707.66996786962
396.7056521,129628.551093229
395.9584903,123611.7975297191
395.2158722,117712.70620881607
394.4777551,111950.31971850892
393.7440968,106346.5552452945
393.0148555,100983.79426984592
392.2899901,95778.52912963668
391.56946,90833.98517559114
390.853225,86119.52758372671
390.1412452,81598.47430545237
389.43348169999996,77285.6001135602
388.7298955,73151.35218242613
388.03044839999995,69219.73381173567
387.3351027,65426.52450535082
386.6438209,61791.87382902684
385.95656610000003,58323.524756743085
385.2733019,54996.18333987004
384.5939922,51832.042215791414
383.9186014,48831.353844720994
383.2470943,45977.335467801364
382.5794362,43321.33566963162
381.9155926,40781.015527303214
381.2555296,38419.27612735537
380.59921360000004,36170.55859759807
379.9466115,34049.41569817413
379.29769039999996,32044.127909861138
378.652418,30119.414891099863
378.0107622,28289.26871014284
377.37269130000004,26550.857049676317
376.73817410000004,24888.311682663218
376.1071796,23293.32507694355
375.47967719999997,21764.49205773168
374.8556368,20294.737107496017
374.2350283,18891.322120921217
373.6178223,17552.925999583284
373.0039896,16271.737172971081
372.3935012,15071.221106614534
371.78632860000005,13907.56082080848
371.1824436,12808.956266003013
370.5818182,11775.070212789875
369.98442489999996,10794.120444419172
369.39023629999997,9851.287674101975
368.7992255,8964.903337331189
368.2113658,8140.830276205445
367.6266307,7347.832920115691
367.0449943,6604.21647160414
366.4664305,5901.307646791407
365.89091410000003,5252.613232047269
365.3184196,4638.010684576987
364.7489221,4064.1901375843076
364.18239689999996,3542.1705659249865
363.61881960000005,3044.480977235182
363.058166,2583.212673969423
362.50041219999997,2166.5583610488966
361.94553460000003,1786.5869864834326
361.3935098,1430.3107325131475
360.8443147,1126.071028407434
360.29792630000003,864.5398955895122
359.754322,631.4153922957065
359.2134795,453.06370542378966
358.6753765,298.27400901994616
358.1399912,194.5533551066689
357.6073018,116.99982272653006
357.077287,64.8612830772786
356.5499253,27.819900025327865
356.025196,9.463089528252294
355.50307799999996,4.6443713813363585
354.983551,2.0816483800081267
354.4665945,-3.2872884540824754
353.95218839999995,4.904485756705434
353.4403127,2.317645346735904
352.9309478,-1.6060379565503848
352.42407410000004,0.4880047689124553
351.9196722,-0.4330715817001528
351.4177232,-2.714852976320926
350.91820789999997,-0.5307911028089971
350.4211078,2.3588416384540984
349.9264043,0.5622524319952316
349.434079,-1.6542187999921965
348.9441137,1.5355050750242591
348.45649060000005,-0.4778325375302884
347.97119169999996,1.2269478591197738
347.48819960000003,-0.11970613231293907
347.0074967,0.5396710077390119
346.5290657,-1.9456066729413763
346.0528897,0.8644030480450925
345.5789517,2.831210881423698
345.1072349,0.4963106438758242
344.6377228,-0.4751755086855092
344.17039889999995,-0.832056555830216
343.70524710000007,-0.6328075841375705
343.24225110000003,-0.8539657839191326
342.7813952,0.41658723356559335
342.32266339999995,0.5552679152368406
341.8660403,-2.331430646540505
341.4115102,4.387483993936817
340.959058,-1.017080436460506
340.5086685,-1.9294462976961024
340.06032660000005,3.1935454676420174
339.6140175,0.964520391951186
339.1697264,-0.6177672126733863
338.7274388,1.7314225864412278
338.28714019999995,0.5544353300889214
337.8488164,3.744696383242181
337.41245310000005,-0.4172450815315056
336.9780363,0.651279108184285
336.5455522,-1.166506772201067
336.114987,1.6209726278958685
335.686327,1.5398078405003162
335.2595588,-1.9315696568530982
334.834669,1.9785349938765002
334.4116443,-1.5103787268811435
333.9904716,-1.8063679570154303
333.57113799999996,1.7512902461882816
333.1536305,2.6458306585835865
332.73793639999997,1.639315793883931
332.32404310000004,1.7137712067509927
331.91193799999996,0.6535372465624134
331.5016088,-5.6649163128386135
331.0930432,-1.5070693054329918
330.6862289,1.2807526641973874
330.281154,1.4175040643297232
329.8778065,-0.6810925435353621
329.47617460000004,-2.109956449001829
329.07624649999997,0.31021765268382645
328.6780106,-5.5816149486895625
328.2814555,1.0661963078479575
327.88656960000003,-1.3659295746008715
327.4933418,2.552922930340797
327.1017607,0.10236190222314537
326.7118154,-4.535958119562012
326.32349480000005,0.7144194075733069
325.93678789999996,-0.44096205175062814
325.5516841,1.8038284642587687
325.16817260000005,-3.4949455427461165
324.7862428,-3.3889581228690684
324.40588419999995,4.6413039428748535
324.0270864,-0.3348969738967635
323.649839,0.0069892666346548045
323.2741319,-1.8387474109904105
322.8999548,0.2914217469008735
322.5272977,1.7631512526706332
322.1561508,-4.2509788985607955
321.786504,1.320648468430124
321.4183476,-1.8682815095649097
321.0516719,3.512165446262536
320.6864673,1.3186512863375812
320.3227243,-2.934193573952424
319.96043330000003,1.007433181762993
319.5995851,4.4418509652983245
319.2401704,0.029481394579818576
318.8821799,-1.564951509661029
318.5256045,1.113353669789526
318.1704352,-3.4806565507976064
317.8166631,3.5909767062123565
317.4642791,-1.640479215616838
317.1132746,-4.137127663349844
316.76364069999994,-2.0897217070974663
316.4153688,4.213539552196694
316.06845039999996,-0.3688881604406192
315.72287689999996,3.1664411754221917
315.37863980000003,6.080956757344158
315.0357308,0.15122500504212644
314.6941415,-0.8268179222910168
314.3538639,-0.9152352661437732
314.0148896,3.1872683204908103
313.6772106,-1.4058764908837451
313.3408189,-0.6957630754147212
313.00570639999995,-4.865676853407757
312.67186549999997,-2.6309591088772684
312.33928810000003,-3.8710088822468536
312.0079665,-5.207152500605437
311.6778931,3.1550241813758415
311.34906010000003,-2.9315831366479967
311.0214601,1.5102224325012334
310.6950856,3.0212803741842587
310.369929,0.09578383253987237
310.04598300000004,-0.6433311216509596
309.7232403,-0.12249031767259685
309.4016935,-0.9179243594652754
309.0813356,-1.5680485973040132
308.7621594,-1.6827689523138925
308.4441577,2.4803854564088064
308.1273236,-1.5048445758846605
307.8116501,2.4103840842245843
307.49713019999996,-2.2614387119682604
307.18375710000004,2.885589930256711
306.871524,4.35430220540401
306.5604242,1.8630723214625564
306.2504509,1.7032814680053432
