wave,flux
1817.164934,0.4737176719359474
1790.1022050000001,-3.8590594590089613
1763.812741,8.166782628523817
1738.2646949999998,6.934605543365784
1713.427949,10.972532998818746
1689.273995,94.67203115648245
1665.7758310000002,273.1088538954059
1642.907862,558.5096271382885
1620.64581,949.9175063968477
1598.9666300000001,1425.3620299484844
1577.8484310000001,2022.5169573704325
1557.270407,2712.7469232824224
1537.212767,3527.9968541941594
1517.65668,4305.829426016054
1498.5842089999999,5041.184791286067
1479.978265,5724.966945960963
1461.822555,6346.628734634582
1444.101535,6934.495003143776
1426.800368,7531.341776076961
1409.904887,8183.103050412354
1393.401553,8861.991294948433
1377.2774220000001,9714.221813565186
1361.520115,10753.663593868368
1346.117782,12038.065158351365
1331.059081,13568.841603579689
1316.3331449999998,15365.963874642037
1301.92956,17425.497918189503
1287.838342,19663.969204579862
1274.049912,22068.593441538345
1260.5550779999999,24649.13916049113
1247.345017,27308.887506372397
1234.4112519999999,30111.45875658746
1221.74564,32917.07447392786
1209.340352,35671.70206314169
1197.187859,38539.286970897236
1185.28092,41332.36732023653
1173.612564,44079.51606255712
1162.1760800000002,46874.62211753234
1150.9650060000001,49619.033205091495
1139.973115,52372.829966708254
1129.194406,55134.37829196077
1118.623093,57859.41802727173
1108.253594,60706.13216001088
1098.0805269999998,63593.463559706826
1088.098695,66570.65842257335
1078.303081,69565.42125236658
1068.688841,72727.42153932892
1059.251295,75978.26411585993
1049.9859199999999,79273.31888540437
1040.8883449999998,82580.95548966661
1031.9543429999999,86053.58168694159
1023.1798259999999,89620.71560026705
1014.5608390000001,93352.58988786912
1006.0935529999999,97247.26247324503
997.774265,101320.90203974297
989.5993858999999,105482.13621823557
981.5654412999999,109721.36734510881
973.6690651,114070.81790218511
965.9069952,118647.94066361425
958.2760697000001,123089.2359917116
950.7732231000001,127658.24228407224
943.3954827,132065.14673545276
936.1399648,136738.80936075866
929.0038716,141283.1670070471
921.9844879000001,145792.38831115337
915.0791782,150520.0287325164
908.2853836000002,155437.55145444456
901.6006193,160446.87911332218
895.0224714,165657.78379147995
888.548595,171487.40576445698
882.1767113,177749.1062120971
875.9046055,184427.5951961825
869.7301242999998,191763.03569073905
863.6511742999999,199950.41059841696
857.6657193,208604.91909581254
851.7717787,218219.41520350325
845.9674256000001,228118.65475806608
840.2507849,239246.1789644599
834.6200316000001,250787.44591075546
829.0733892000001,263575.01990843803
823.6091279,277101.4893159347
818.2255633999999,291303.5293819413
812.9210552000001,306284.5288152498
807.694005,321329.8766923043
802.5428559,337380.5448754933
797.4660904,353129.46994161786
792.4622299,369285.1177637596
787.5298327,386082.19399904174
782.6674933999999,404936.06217059627
777.8738417999999,426157.5899085479
773.1475413,451342.3478135221
768.4872882999999,482273.8480056856
763.8918112000001,518727.1695254451
759.3598692,564787.7647725589
754.8902515999999,619059.7390735779
750.4817767999999,681567.4044405374
746.1332914,750606.836634747
741.8436694000001,828266.8682885
737.6118116,909183.2825348369
733.4366444,992450.7416939792
729.3171195,1076156.5523162966
725.2522127999999,1159241.444915765
721.2409241,1244788.8567945743
717.282276,1336821.8180238374
713.3753136,1440336.8752844038
709.5191037000001,1564708.16981155
705.7127343,1725910.119698214
701.9553139,1930095.6464813356
698.2459709,2189843.43960617
694.5838534,2511199.645252995
690.9681281000001,2879326.03235948
687.3979803,3289489.1698430786
683.8726131,3723706.549243875
680.3912472999999,4162222.0127903437
676.9531202000001,4588233.800601216
673.557486,4976456.480816368
670.2036149,5301150.142452628
666.8907926,5556104.9984824015
663.6183202999999,5748787.397866264
660.3855139,5885623.836604392
657.1917038,5973492.941646309
654.0362346,6020979.867948025
650.9184646000001,6038243.961827157
647.8377654,6040802.558617973
644.7935217999999,6043181.494896943
641.7851312999999,6041024.091024643
638.8120038,6040641.078344192
635.8735614,6041047.552541087
632.9692378999999,6041603.879097423
630.0984786,6041133.825476736
627.2607402000001,6041198.243881164
624.4554901,6040789.873492342
621.6822068,6041935.099452259
618.940379,6041727.533068798
616.2295054,6041419.865100891
613.549095,6041199.4639255125
610.8986664,6041624.44445289
608.2777476,6041343.209819998
605.6858758999999,6041375.693647662
603.1225977000001,6041259.681641662
600.5874682,6040760.1558965435
598.0800512,6040585.152683953
595.5999188999999,6041498.987784272
593.1466518,6041600.479570947
590.7198384999999,6041309.876697018
588.3190752,6041771.346068749
585.943966,6041502.595362132
583.5941226,6041462.284693661
581.2691637,6041507.953636539
578.9687155,6041202.533227648
576.692411,6040984.280316255
574.4398902,6041527.091536813
572.2107997,6041497.983453032
570.0047927,6041329.180915345
567.8215287,6041153.782094843
565.6606737000001,6041310.219645848
563.5218996,6041249.254274447
561.4048845,6041446.287509263
559.3093121,6041076.406582868
557.2348721,6041276.403875941
555.1812597,6041341.953820783
553.1481756000001,6041360.046583222
551.1353259,6041654.465102552
549.1424218999999,6041223.50288934
547.1691801,6041501.502506907
545.2153222000001,6041143.113740876
543.2805745000001,6041401.475231736
541.3646685,6041912.584292516
539.46734,6041156.114267968
537.5883299,6041607.831088581
535.7273833,6041481.273408772
533.8842498,6041184.358797535
532.0586836,6041358.932846692
530.2504428000001,6041398.736390557
528.45929,6041202.855426707
526.6849915,6041180.065912123
524.927318,6040975.880105153
523.186044,6041043.496293515
521.4609475999999,6041204.942516234
519.7518110000001,6041219.427547308
518.0584200000001,6041710.157968898
516.3805639,6041447.026965908
514.7180356,6041511.395550579
513.0706316000001,6041460.132561902
511.43815149999995,6041595.776639418
509.82039860000003,6041231.957213642
508.2171791999999,6041532.186675392
506.628303,6040885.2923013065
505.05358269999994,6041419.793205272
503.4928341,6041255.877105048
501.9458762,6041579.159274382
500.41253059999997,6041769.788009187
498.8926222,6041839.223715927
497.3859785,6041464.027017439
495.89242989999997,6041622.144562159
494.4118094,6041283.795858831
492.943953,6041428.445807435
491.488699,6041710.86443168
490.04588839999997,6041555.684400948
488.6153648,6041666.698078441
487.19697429999997,6041508.162930594
485.7905654,6041294.602068608
484.39598889999996,6041782.119207081
483.01309800000007,6041514.507856128
481.64174840000004,6041136.241280053
480.28179789999996,6041425.246687861
478.93310639999993,6041663.925606845
477.59553619999997,6041379.425380254
476.2689517,6041488.021569577
474.9532192,6041203.914319983
473.6482074,6041445.711995215
472.35378679999997,6041097.878056051
471.06982989999995,6041410.207658318
469.79621110000005,6041213.532423003
468.53280700000005,6041204.159717158
467.2794956999999,6041513.947293517
466.0361575,6041793.209133034
464.80267410000005,6041452.988592926
463.5789295,6041441.97544626
462.364809,6041350.206250105
461.1601998,6041411.632606934
459.9649909,6041423.924080253
458.7790727,6041199.938473278
457.6023374,6041223.12023955
456.4346788,6041462.424612032
455.2759921,6041722.15303671
454.12617439999997,6041499.36291483
452.9851239,6041570.8814695375
451.85274060000006,6041617.40719294
450.7289258,6041436.855402297
449.6135822,6041159.35108052
448.5066141,6041839.000612175
447.407927,6041537.8617101675
446.317428,6041392.863622735
445.23502520000005,6041244.512159611
444.1606283,6041318.479283791
443.0941482,6041379.211734338
442.03549699999996,6041686.653379696
440.9845882,6041775.096563853
439.9413364,6041364.260550482
438.9056575,6037276.352937989
437.87746860000004,6019120.468518037
436.85668780000003,5975941.047973167
435.8432345,5898580.685546527
434.83702930000004,5777917.069666186
433.83799369999997,5606099.2016143985
432.84605039999997,5376726.193017697
431.8611232,5083939.710187465
430.8831369,4731043.682130248
429.9120175,4335550.611517765
428.94769169999995,3914491.3043281636
427.9900874,3484884.6295292717
427.03913370000004,3062954.830714654
426.0947602,2663354.898172465
425.1568978,2298337.490263503
424.22547829999996,1978413.7022222327
423.3004343,1708189.693516967
422.3816994,1484441.3570802975
421.4692081,1301932.3553664389
420.56289569999996,1155528.388458552
419.66269850000003,1038767.277334705
418.7685535,945826.48624692
417.8803987,871751.0218224729
416.9981727,812119.9117550108
416.12181519999996,762293.8607587814
415.25126639999996,720414.932874371
414.38646760000006,683916.7614919839
413.5273605,651242.9496646252
412.673888,621850.2646164071
411.8259934,594904.1673917347
410.9836208,570127.2425605119
410.14671519999996,547382.3424175574
409.3152221,526411.5575247305
408.48908789999996,507276.68337132456
407.66825960000006,489781.44317722466
406.8526847,473731.4653049605
406.0423117,458841.77232428273
405.2370896,444964.55577097705
404.43696800000004,431880.3056372263
403.64189730000004,419426.92891299
402.8518283,407361.82972251205
402.0667126,395626.5702320455
401.28650239999996,384147.841060966
400.5111505,372799.1948903504
399.7406101,361515.3386170146
398.9748353,350190.56781066675
398.2137806,338704.7373797186
397.457401,327069.123531723
396.7056521,315121.33346853557
395.9584903,303002.7971926611
395.2158722,290620.7556326651
394.4777551,278050.67252832203
393.7440968,265654.4682572423
393.0148555,253358.3074239621
392.2899901,241358.4505921761
391.56946,229869.2691074119
390.853225,218913.17794448923
390.1412452,208482.13153117668
389.43348169999996,198594.51330418204
388.7298955,189137.16596565372
388.03044839999995,180033.92489755852
387.3351027,171239.02778695562
386.6438209,162851.53936412552
385.95656610000003,154664.73840747972
385.2733019,146731.62154549552
384.5939922,139117.20629363527
383.9186014,131873.50448116547
383.2470943,124994.32994411096
382.5794362,118478.7397428844
381.9155926,112372.13049225743
381.2555296,106592.2485637618
380.59921360000004,101141.70313905727
379.9466115,95953.84319045467
379.29769039999996,91045.21959199027
378.652418,86375.98114114396
378.0107622,81952.90136680288
377.37269130000004,77697.6669202008
376.73817410000004,73630.4498965339
376.1071796,69748.5974699132
375.47967719999997,65996.37934587039
374.8556368,62398.85415625678
374.2350283,58927.83442316657
373.6178223,55556.49348715045
373.0039896,52297.663364466775
372.3935012,49142.23481568306
371.78632860000005,46057.2082104578
371.1824436,43054.15326417034
370.5818182,40150.88727697526
369.98442489999996,37347.7227506568
369.39023629999997,34601.285231261965
368.7992255,31945.047941543686
368.2113658,29386.56107661524
367.6266307,26898.347454223647
367.0449943,24506.210271516153
366.4664305,22206.46461097687
365.89091410000003,20005.42493226336
365.3184196,17870.02751669628
364.7489221,15856.839033197488
364.18239689999996,13927.212280347005
363.61881960000005,12086.885076484294
363.058166,10338.329833545826
362.50041219999997,8693.068983090521
361.94553460000003,7172.84552086028
361.3935098,5784.772601982602
360.8443147,4544.753809042451
360.29792630000003,3449.8537014205367
359.754322,2511.6391635090545
359.2134795,1755.3739793008451
358.6753765,1167.9594475386834
358.1399912,729.5610579062555
357.6073018,429.6591411675353
357.077287,222.74119975235303
356.5499253,89.96592911753883
356.025196,30.623171117137524
355.50307799999996,4.607615314563668
354.983551,0.14378708746875274
354.4665945,-2.0536957800476143
353.95218839999995,3.037356751530693
353.4403127,4.511721825110294
352.9309478,-3.100840032512876
352.42407410000004,-4.09943107603914
351.9196722,0.105470790119009
351.4177232,-0.8993919527699822
350.91820789999997,0.2169164932121123
350.4211078,-2.5236073623949284
349.9264043,0.0026510864916854237
349.434079,-0.3473357636887098
348.9441137,-1.164901030655406
348.45649060000005,0.9238031154007668
347.97119169999996,0.7722220148747522
347.48819960000003,2.3684465994414388
347.0074967,0.8607081296834637
346.5290657,1.7258703599109186
346.0528897,2.276582433416582
345.5789517,-1.0440962784938304
345.1072349,-2.9397429306391563
344.6377228,-0.9028453119073748
344.17039889999995,-0.6837721837514829
343.70524710000007,-0.1299226291030633
343.24225110000003,4.022119107198973
342.7813952,-0.6441577325739342
342.32266339999995,2.0374875978882145
341.8660403,-5.585032699207042
341.4115102,-1.1699094584683547
340.959058,1.1957193640519952
340.5086685,0.9051699406885864
340.06032660000005,3.6145803558498217
339.6140175,7.621376417460325
339.1697264,1.5421912437861909
338.7274388,-3.1834800615851986
338.28714019999995,0.7980478973408571
337.8488164,2.7829690644648557
337.41245310000005,-0.4822490690467673
336.9780363,-1.5120334249686385
336.5455522,-0.7352067818368591
336.114987,0.9061379265748668
335.686327,2.7877044404329214
335.2595588,1.8063434484750256
334.834669,-3.937508214042268
334.4116443,1.2103942795159923
333.9904716,-0.24348047057051994
333.57113799999996,-1.5854996161440909
333.1536305,-0.9433338231193568
332.73793639999997,1.1235938279219704
332.32404310000004,-0.5778514013021409
331.91193799999996,1.6442323499988174
331.5016088,0.7674425856223865
331.0930432,0.40822079711339293
330.6862289,-0.05086541072658599
330.281154,3.847501992420269
329.8778065,0.5276590864883305
329.47617460000004,-0.3125023466203347
329.07624649999997,2.3423605151368103
328.6780106,1.9740350519930672
328.2814555,0.1096151422918836
327.88656960000003,-0.8758911905068224
327.4933418,-0.02180744238979675
327.1017607,6.206299519544827
326.7118154,1.5821110050996592
326.32349480000005,-0.2863073541328793
325.93678789999996,-2.056030336136242
325.5516841,-0.5255126610006654
325.16817260000005,-4.2274274597639545
324.7862428,0.4817348774593339
324.40588419999995,-0.4507941744179844
324.0270864,-1.7219676573945395
323.649839,5.176835926196431
323.2741319,0.6060656993572489
322.8999548,6.040891721252439
322.5272977,-1.7187328175935919
322.1561508,-2.9949387592268137
321.786504,-0.6109025657523731
321.4183476,2.1928990889380446
321.0516719,0.8741637010529653
320.6864673,-0.8355265342382809
320.3227243,-2.33752596291644
319.96043330000003,-2.5311081913484803
319.5995851,2.0598998276464253
319.2401704,3.458024980341857
318.8821799,3.419210293951488
318.5256045,2.7854627066448856
318.1704352,1.0473621975261735
317.8166631,-2.755996467514773
317.4642791,-1.6382899307190382
317.1132746,0.4323354241952411
316.76364069999994,-0.7281223089170257
316.4153688,0.14531471727312392
316.06845039999996,1.0682065091894388
315.72287689999996,-0.2234055701298525
315.37863980000003,-4.5880710282305746
315.0357308,3.5336438352301136
314.6941415,-0.1793354803188133
314.3538639,0.6865516282271582
314.0148896,1.0290851284634588
313.6772106,-5.102509874870679
313.3408189,3.8440339793994447
313.00570639999995,-4.004329859646998
312.67186549999997,3.349046074154842
312.33928810000003,-2.3672688244352704
312.0079665,3.2441371641099264
311.6778931,0.26993832602989665
311.34906010000003,-2.6755940278174326
311.0214601,3.800204051770306
310.6950856,2.799873679825998
310.369929,-3.8678743949924073
310.04598300000004,-4.206014104405362
309.7232403,-1.4050186487617131
309.4016935,-2.671025187026454
309.0813356,4.928673514095063
308.7621594,-3.62078369668369
308.4441577,-1.3464608418961763
308.1273236,1.7805495629577115
307.8116501,2.6127261270159594
307.49713019999996,-4.77134965821222
307.18375710000004,-2.388227278992823
306.871524,-5.475289169315934
306.5604242,-2.1265228321481637
306.2504509,2.9390678028695296
