wave,flux
1817.164934,-3.5768393419224034
1790.1022050000001,22.28921296924001
1763.812741,22.674979828435866
1738.2646949999998,135.14206682017308
1713.427949,260.37120986860197
1689.273995,3597.059563208259
1665.7758310000002,11382.050678973921
1642.907862,23659.270508397487
1620.64581,40441.715918501686
1598.9666300000001,61801.67843221876
1577.8484310000001,87807.07550055259
1557.270407,118073.20024474221
1537.212767,152887.78743732744
1517.65668,186699.4345875606
1498.5842089999999,216772.907484327
1479.978265,243972.3988956193
1461.822555,267154.19772299763
1444.101535,287112.6423594021
1426.800368,302507.46051295684
1409.904887,314968.34468162037
1393.401553,323623.9087961919
1377.2774220000001,330917.03177092643
1361.520115,337809.41938236717
1346.117782,344706.0416995559
1331.059081,351646.6372371175
1316.3331449999998,358573.6272932239
1301.92956,365866.9852198113
1287.838342,373062.86726709286
1274.049912,380872.2115003932
1260.5550779999999,388711.50850451755
1247.345017,396692.4515176365
1234.4112519999999,404786.11681114783
1221.74564,413668.8497047624
1209.340352,421732.1827428025
1197.187859,429770.8525843737
1185.28092,437831.72440917045
1173.612564,445710.64046279655
1162.1760800000002,453158.7437499314
1150.9650060000001,460735.43144772213
1139.973115,468162.2063446338
1129.194406,475547.66178690275
1118.623093,483225.57764460635
1108.253594,490757.9176970442
1098.0805269999998,499032.2559080211
1088.098695,506399.63736407907
1078.303081,515354.05413330405
1068.688841,524873.5528679151
1059.251295,536918.3631854479
1049.9859199999999,551956.1303087883
1040.8883449999998,570274.0658141603
1031.9543429999999,593894.1955633416
1023.1798259999999,622973.7029507231
1014.5608390000001,656482.336443622
1006.0935529999999,695878.0733100431
997.774265,739231.9841887867
989.5993858999999,784741.401368876
981.5654412999999,832276.3090581859
973.6690651,878509.5829966755
965.9069952,922705.7903213836
958.2760697000001,963347.1965254863
950.7732231000001,998990.5893905446
943.3954827,1029235.2328844492
936.1399648,1053394.23346595
929.0038716,1070629.0322066478
921.9844879000001,1083420.2558775165
915.0791782,1091791.2568388954
908.2853836000002,1098009.4094417617
901.6006193,1103284.4601443002
895.0224714,1112158.2947308074
888.548595,1127385.417545206
882.1767113,1149984.268742733
875.9046055,1182847.431837739
869.7301242999998,1230438.4229986228
863.6511742999999,1294494.1476276505
857.6657193,1377263.251941025
851.7717787,1481861.4999278511
845.9674256000001,1613392.4397441319
840.2507849,1773186.2408626054
834.6200316000001,1966326.7460848212
829.0733892000001,2191276.4921644195
823.6091279,2450199.795425629
818.2255633999999,2731180.545535869
812.9210552000001,3035381.9319845024
807.694005,3348299.389710821
802.5428559,3664273.275564883
797.4660904,3982103.5441202912
792.4622299,4289585.032141304
787.5298327,4571109.440459352
782.6674933999999,4837161.563893094
777.8738417999999,5068713.8749829335
773.1475413,5282100.459691005
768.4872882999999,5467016.2366207335
763.8918112000001,5623806.536689982
759.3598692,5749946.318647318
754.8902515999999,5847517.08032268
750.4817767999999,5925585.7600300275
746.1332914,5976473.406005197
741.8436694000001,6009325.920828338
737.6118116,6031260.378027378
733.4366444,6039899.339492635
729.3171195,6042974.165735188
725.2522127999999,6041403.610831109
721.2409241,6042975.390368645
717.282276,6041344.434959569
713.3753136,6037384.653835823
709.5191037000001,6038632.703377827
705.7127343,6039075.245755669
701.9553139,6044521.965035718
698.2459709,6040706.242782213
694.5838534,6042815.539304636
690.9681281000001,6037770.180981497
687.3979803,6040445.337725922
683.8726131,6038069.556722424
680.3912472999999,6039768.0714551285
676.9531202000001,6042291.815441106
673.557486,6042280.0908138165
670.2036149,6042191.907957917
666.8907926,6040055.013931131
663.6183202999999,6041547.8785648765
660.3855139,6040799.03308184
657.1917038,6043157.597382085
654.0362346,6041910.255777396
650.9184646000001,6037570.029413221
647.8377654,6042514.71465961
644.7935217999999,6041823.522107729
641.7851312999999,6038908.744628087
638.8120038,6041509.388848983
635.8735614,6042907.232236727
632.9692378999999,6041186.157909045
630.0984786,6041932.077129156
627.2607402000001,6043141.823514258
624.4554901,6042444.157180865
621.6822068,6042206.516902013
618.940379,6041757.297132147
616.2295054,6041321.254522912
613.549095,6041725.108932759
610.8986664,6041671.623020843
608.2777476,6041995.601885052
605.6858758999999,6041438.405193193
603.1225977000001,6041163.5522092935
600.5874682,6041210.898267867
598.0800512,6041286.392246539
595.5999188999999,6041634.040576747
593.1466518,6041255.520092605
590.7198384999999,6041148.697919818
588.3190752,6041516.954163212
585.943966,6041299.133670049
583.5941226,6041182.5671771625
581.2691637,6041053.443540367
578.9687155,6041372.889707772
576.692411,6040964.262222523
574.4398902,6041731.92540402
572.2107997,6041375.505832568
570.0047927,6041378.949933979
567.8215287,6042002.180616294
565.6606737000001,6041146.0577844735
563.5218996,6041460.414391412
561.4048845,6041150.214060937
559.3093121,6041388.681756784
557.2348721,6041500.265363794
555.1812597,6041558.717663256
553.1481756000001,6041449.092986254
551.1353259,6041153.986705085
549.1424218999999,6041169.479680805
547.1691801,6040959.4674265785
545.2153222000001,6041275.185020292
543.2805745000001,6041721.130136954
541.3646685,6041302.150123089
539.46734,6041475.752065427
537.5883299,6041287.030054786
535.7273833,6041605.154412634
533.8842498,6041531.32367493
532.0586836,6041571.413494533
530.2504428000001,6041804.888240201
528.45929,6041659.506974832
526.6849915,6041370.410220153
524.927318,6041070.091506431
523.186044,6041521.633644591
521.4609475999999,6041681.202620639
519.7518110000001,6041188.909776918
518.0584200000001,6041498.613797685
516.3805639,6041805.094571225
514.7180356,6041192.619577047
513.0706316000001,6041417.556552907
511.43815149999995,6041361.430442178
509.82039860000003,6041398.6520355875
508.2171791999999,6041347.309962319
506.628303,6041941.129306945
505.05358269999994,6041735.760984365
503.4928341,6041707.500030877
501.9458762,6041293.460476967
500.41253059999997,6041259.652980526
498.8926222,6041133.474084994
497.3859785,6041298.4468768975
495.89242989999997,6041133.915712457
494.4118094,6041502.285117334
492.943953,6040987.722082789
491.488699,6041084.147380021
490.04588839999997,6041751.995023443
488.6153648,6041416.745737325
487.19697429999997,6035402.58449394
485.7905654,6017815.555738921
484.39598889999996,5986221.209719078
483.01309800000007,5937428.4576852275
481.64174840000004,5870532.369350816
480.28179789999996,5786150.265000722
478.93310639999993,5685959.337107369
477.59553619999997,5571472.398987622
476.2689517,5458732.277875187
474.9532192,5359460.870688018
473.6482074,5285459.948658704
472.35378679999997,5244395.091036264
471.06982989999995,5239173.945291055
469.79621110000005,5268405.8673284855
468.53280700000005,5328874.079252281
467.2794956999999,5417842.876751985
466.0361575,5523021.584212242
464.80267410000005,5632808.9295120565
463.5789295,5736001.146283965
462.364809,5824557.530737933
461.1601998,5892944.43672321
459.9649909,5944658.195234005
458.7790727,5981413.78601601
457.6023374,6004305.299947007
456.4346788,6015518.045958669
455.2759921,6019618.924262659
454.12617439999997,6018512.766829417
452.9851239,6017764.723278328
451.85274060000006,6018511.899301457
450.7289258,6020795.063540696
449.6135822,6024127.010714556
448.5066141,6027193.927711782
447.407927,6030135.243903615
446.317428,6033623.283592181
445.23502520000005,6035701.121201406
444.1606283,6038766.249962048
443.0941482,6041044.178576516
442.03549699999996,6041201.38020329
440.9845882,6041652.174522272
439.9413364,6041726.2478520665
438.9056575,6040956.63995913
437.87746860000004,6041373.122023473
436.85668780000003,6041825.1452290565
435.8432345,6041374.904478616
434.83702930000004,6041332.451389299
433.83799369999997,6040948.7318289885
432.84605039999997,6041686.7435403215
431.8611232,6041337.718160678
430.8831369,6040314.502260809
429.9120175,6034551.09538387
428.94769169999995,6021910.466884802
427.9900874,5999650.249060852
427.03913370000004,5967827.695293932
426.0947602,5924080.309849039
425.1568978,5870064.082932103
424.22547829999996,5806240.747812044
423.3004343,5738857.951674543
422.3816994,5677956.82728109
421.4692081,5630724.942470354
420.56289569999996,5601900.892641071
419.66269850000003,5594070.630138947
418.7685535,5608964.275358778
417.8803987,5644795.219066861
416.9981727,5699471.109249158
416.12181519999996,5765944.735538793
415.25126639999996,5832618.690131159
414.38646760000006,5892201.62122806
413.5273605,5942816.848694216
412.673888,5982694.991732326
411.8259934,6011521.847519637
410.9836208,6029834.577879681
410.14671519999996,6038771.971740387
409.3152221,6041096.832127811
408.48908789999996,6041032.012386617
407.66825960000006,6041642.244652652
406.8526847,6041056.9325955
406.0423117,6041241.250654714
405.2370896,6041740.431924563
404.43696800000004,6041344.606351424
403.64189730000004,6041174.160947342
402.8518283,6041463.3876090115
402.0667126,6038701.315113269
401.28650239999996,6026999.508939183
400.5111505,6002165.050469857
399.7406101,5959188.20194639
398.9748353,5893895.377236303
398.2137806,5804145.677581094
397.457401,5686714.709363896
396.7056521,5538733.577578485
395.9584903,5363542.638226168
395.2158722,5168666.904814561
394.4777551,4960703.178722152
393.7440968,4745176.46488501
393.0148555,4524847.562182476
392.2899901,4301508.894133876
391.56946,4077462.7524111727
390.853225,3852216.8400307167
390.1412452,3624884.1337099117
389.43348169999996,3392483.53844538
388.7298955,3153479.1518253074
388.03044839999995,2906883.1102688364
387.3351027,2655691.029626822
386.6438209,2403200.1667115544
385.95656610000003,2153360.299495125
385.2733019,1911174.5082981025
384.5939922,1681435.4969666924
383.9186014,1468329.8654715463
383.2470943,1274318.0778230785
382.5794362,1102546.5309292176
381.9155926,952710.8280022172
381.2555296,824661.5557264079
380.59921360000004,717137.4476604962
379.9466115,628660.1908991962
379.29769039999996,556182.6531006021
378.652418,497994.8144416874
378.0107622,451332.1256075421
377.37269130000004,413909.6457618959
376.73817410000004,383973.681990924
376.1071796,359634.96823595563
375.47967719999997,339511.8495103229
374.8556368,322769.7288832939
374.2350283,308386.83327142603
373.6178223,295604.5720856332
373.0039896,284292.2244631791
372.3935012,273830.34904689237
371.78632860000005,264127.11297893146
371.1824436,255081.05846429113
370.5818182,246511.9710406506
369.98442489999996,238331.71160077504
369.39023629999997,230558.4129460885
368.7992255,223056.90239827105
368.2113658,215804.25807403086
367.6266307,208824.36874683292
367.0449943,202035.6612939125
366.4664305,195365.75582036198
365.89091410000003,188896.52395980328
365.3184196,182576.446827082
364.7489221,176433.60885690176
364.18239689999996,170395.18510416764
363.61881960000005,164482.20228879125
363.058166,158592.54535895845
362.50041219999997,152689.76996104867
361.94553460000003,146889.41492929414
361.3935098,141174.809200095
360.8443147,135561.57861512704
360.29792630000003,130020.35866851635
359.754322,124610.04979609455
359.2134795,119350.63296502623
358.6753765,114361.03189669744
358.1399912,109618.44930321627
357.6073018,105126.96867700148
357.077287,100780.84460672358
356.5499253,96608.689193275
356.025196,92650.88631559859
355.50307799999996,88829.75556851822
354.983551,85260.928767326
354.4665945,81866.44218059401
353.95218839999995,78658.81437828533
353.4403127,75623.21252725628
352.9309478,72788.46447569226
352.42407410000004,70143.44932361442
351.9196722,67655.9612980072
351.4177232,65323.799533435726
350.91820789999997,63025.085683573896
350.4211078,60702.859587255094
349.9264043,58413.16007622089
349.434079,56020.036759282346
348.9441137,53565.64213530179
348.45649060000005,51045.680373464864
347.97119169999996,48480.78123263938
347.48819960000003,45874.131521060466
347.0074967,43265.96447915112
346.5290657,40766.72847348703
346.0528897,38337.080319907014
345.5789517,35968.106826070296
345.1072349,33659.110777827336
344.6377228,31391.867963425586
344.17039889999995,29181.630581694244
343.70524710000007,27008.21491096424
343.24225110000003,24876.733492450687
342.7813952,22726.40291047647
342.32266339999995,20714.35831718945
341.8660403,18765.996565471734
341.4115102,16999.492472561767
340.959058,15407.171294535381
340.5086685,13995.9450585121
340.06032660000005,12752.586465302886
339.6140175,11642.208577907664
339.1697264,10640.638992792949
338.7274388,9706.788292260262
338.28714019999995,8838.328152687462
337.8488164,7988.524938643557
337.41245310000005,7139.650245903753
336.9780363,6273.24363656786
336.5455522,5414.406315289588
336.114987,4585.003124230413
335.686327,3793.384006605116
335.2595588,3066.8461719488478
334.834669,2409.7801968123085
334.4116443,1830.8083920480553
333.9904716,1344.6578849401394
333.57113799999996,950.8824431317296
333.1536305,646.4795700403497
332.73793639999997,417.1189307684001
332.32404310000004,257.4518581176413
331.91193799999996,151.3912950539753
331.5016088,83.10886946082968
331.0930432,38.43935824388544
330.6862289,18.96171423916357
330.281154,2.472614520599516
329.8778065,-3.1714995402152555
329.47617460000004,-1.0042702965947363
329.07624649999997,3.475287039749994
328.6780106,0.27223501674257233
328.2814555,5.014794142443019
327.88656960000003,0.7473695468052417
327.4933418,-1.1888468384616957
327.1017607,3.4284762564999176
326.7118154,-0.16392656417789084
326.32349480000005,-1.7388835563873992
325.93678789999996,-0.9007811283048506
325.5516841,-1.6749714904792172
325.16817260000005,1.2325997410714908
324.7862428,1.3894366103903546
324.40588419999995,0.09582037726664748
324.0270864,2.352652957002263
323.649839,-2.1142225687591965
323.2741319,-1.5076359304277276
322.8999548,0.6977872014970001
322.5272977,-2.143784682486729
322.1561508,2.6878068176782133
321.786504,-4.333618024289108
321.4183476,0.19343872372407148
321.0516719,-2.11001476578051
320.6864673,3.1440160647688407
320.3227243,-2.4294069192407854
319.96043330000003,-2.6347283468839104
319.5995851,-1.7383794640736987
319.2401704,-0.7323889425259696
318.8821799,-4.8332285667869765
318.5256045,-1.220423633617233
318.1704352,2.3235793848195168
317.8166631,2.012207541601376
317.4642791,-0.7693264214495591
317.1132746,2.0592180229074817
316.76364069999994,0.9820132750324332
316.4153688,-3.4370774907535764
316.06845039999996,-4.87783211930027
315.72287689999996,-6.384706657674173
315.37863980000003,-2.17284595941818
315.0357308,1.9113489044924028
314.6941415,2.639136481195433
314.3538639,0.9010175878748244
314.0148896,1.9890908469295976
313.6772106,-2.92125747565538
313.3408189,3.8220343437242232
313.00570639999995,3.3811518387972224
312.67186549999997,0.9150502734124794
312.33928810000003,-1.3419726464320767
312.0079665,0.9523346216102262
311.6778931,-1.1978493455111503
311.34906010000003,-5.2810277152232805
311.0214601,2.786941275228957
310.6950856,0.1158234823603927
310.369929,-0.8926367518764442
310.04598300000004,-4.125245076369178
309.7232403,-1.8956375075252057
309.4016935,-2.1534943871539483
309.0813356,0.2424844801607663
308.7621594,0.5390403728057179
308.4441577,-1.0456081628473661
308.1273236,-0.5946917385378595
307.8116501,-3.3559109558788003
307.49713019999996,-2.7678278857402314
307.18375710000004,-0.20588935781873308
306.871524,7.353158183547447
306.5604242,0.4595167752478147
306.2504509,2.480982768343858
