wave,flux
1817.164934,-5.519516929614914
1790.1022050000001,7.686518672582263
1763.812741,38.552180646302354
1738.2646949999998,43.68978389615795
1713.427949,125.90555765573141
1689.273995,855.1316893351615
1665.7758310000002,2526.978303139861
1642.907862,5232.809313461682
1620.64581,9079.014298585716
1598.9666300000001,14002.224400216155
1577.8484310000001,20147.290150814948
1557.270407,27508.30019022924
1537.212767,35980.61887522361
1517.65668,44645.14466103284
1498.5842089999999,52867.70152057827
1479.978265,60628.471637869494
1461.822555,67760.80656721878
1444.101535,74353.53526218407
1426.800368,80271.84634013756
1409.904887,85497.35329081984
1393.401553,90166.19709418273
1377.2774220000001,94614.78310853381
1361.520115,99145.92893540674
1346.117782,103726.00147730482
1331.059081,108341.5141358876
1316.3331449999998,113167.27934007098
1301.92956,117827.8603466217
1287.838342,122353.81256731668
1274.049912,126939.86464458678
1260.5550779999999,131352.15570364558
1247.345017,135788.7863514069
1234.4112519999999,140240.37116896373
1221.74564,144546.2482894345
1209.340352,148786.74475604668
1197.187859,153228.27631064688
1185.28092,157681.3366246282
1173.612564,162220.21409338544
1162.1760800000002,166961.30841438778
1150.9650060000001,171563.72543159436
1139.973115,176171.33501367128
1129.194406,180881.89926405187
1118.623093,185473.78892328622
1108.253594,190370.35537663038
1098.0805269999998,194870.00448322273
1088.098695,199635.96258478565
1078.303081,204461.77212456835
1068.688841,209440.62999758645
1059.251295,215286.56637771442
1049.9859199999999,221652.3442086204
1040.8883449999998,228700.5297210068
1031.9543429999999,237227.57801311245
1023.1798259999999,246940.414127845
1014.5608390000001,257587.84066145145
1006.0935529999999,269674.30127806304
997.774265,283019.6977827881
989.5993858999999,297137.61242316273
981.5654412999999,311309.75912292604
973.6690651,326313.1481252797
965.9069952,340598.6078841984
958.2760697000001,354747.1922035437
950.7732231000001,367950.1524181388
943.3954827,380410.5957307683
936.1399648,391783.7571289225
929.0038716,402010.5482285705
921.9844879000001,411951.057944164
915.0791782,420881.996426036
908.2853836000002,429101.72563347564
901.6006193,437620.14353650593
895.0224714,446777.115056398
888.548595,457083.4103412759
882.1767113,469482.5472905652
875.9046055,483440.3927224424
869.7301242999998,501178.9567184308
863.6511742999999,523157.7154008685
857.6657193,548693.7937881919
851.7717787,580104.7841817718
845.9674256000001,616914.777644009
840.2507849,661579.2109844751
834.6200316000001,712712.6009914275
829.0733892000001,773394.0660693651
823.6091279,841296.2424977786
818.2255633999999,918481.4125271706
812.9210552000001,1002495.5000738571
807.694005,1089491.9421944392
802.5428559,1181454.2860430668
797.4660904,1273449.667052116
792.4622299,1370379.7330148153
787.5298327,1477105.6238488604
782.6674933999999,1594718.2558656947
777.8738417999999,1729532.1750108919
773.1475413,1899366.588244239
768.4872882999999,2113218.739424495
763.8918112000001,2382377.454964971
759.3598692,2709487.420262775
754.8902515999999,3076096.7411591318
750.4817767999999,3482480.015554689
746.1332914,3906033.438346453
741.8436694000001,4335062.587161066
737.6118116,4744679.806561773
733.4366444,5109471.104338766
729.3171195,5402971.854462318
725.2522127999999,5635367.979595178
721.2409241,5805740.070512817
717.282276,5921791.676518247
713.3753136,5994404.491505343
709.5191037000001,6029204.838680242
705.7127343,6040354.168494865
701.9553139,6040909.994814088
698.2459709,6039845.902939417
694.5838534,6040725.580345493
690.9681281000001,6040160.285295655
687.3979803,6041423.296361793
683.8726131,6041809.703563303
680.3912472999999,6038387.802886453
676.9531202000001,6041417.966657371
673.557486,6040910.939550713
670.2036149,6043426.72000052
666.8907926,6041573.755780071
663.6183202999999,6040031.407252181
660.3855139,6042405.619223281
657.1917038,6040954.381473812
654.0362346,6043854.739154769
650.9184646000001,6043927.349461488
647.8377654,6043906.811508174
644.7935217999999,6040730.190762706
641.7851312999999,6041167.479891812
638.8120038,6039841.796624888
635.8735614,6040158.994548229
632.9692378999999,6041673.8722315375
630.0984786,6040328.972959739
627.2607402000001,6042109.898815053
624.4554901,6040486.020622206
621.6822068,6041276.39674759
618.940379,6040739.512468008
616.2295054,6041182.646721687
613.549095,6041420.554875527
610.8986664,6041394.74296928
608.2777476,6041812.738414506
605.6858758999999,6041423.493040136
603.1225977000001,6041092.826413723
600.5874682,6041381.53860345
598.0800512,6041399.051343982
595.5999188999999,6041236.075184681
593.1466518,6041723.85125915
590.7198384999999,6041391.38199622
588.3190752,6041647.094909892
585.943966,6041686.968316752
583.5941226,6041362.870284167
581.2691637,6041439.898733765
578.9687155,6041124.47247595
576.692411,6041191.684839651
574.4398902,6041450.37067108
572.2107997,6041151.381611248
570.0047927,6041429.953313465
567.8215287,6041135.375933807
565.6606737000001,6041535.799321024
563.5218996,6041074.362521842
561.4048845,6042191.73611251
559.3093121,6041380.858944328
557.2348721,6041036.766513318
555.1812597,6041395.621354438
553.1481756000001,6040888.927618117
551.1353259,6041140.274830871
549.1424218999999,6041117.273898507
547.1691801,6041611.730360056
545.2153222000001,6041132.958594161
543.2805745000001,6041487.98218104
541.3646685,6041125.483293142
539.46734,6041561.794806296
537.5883299,6041609.828569087
535.7273833,6041221.315391039
533.8842498,6041486.44568059
532.0586836,6041097.643705065
530.2504428000001,6041460.9507516
528.45929,6041423.608450818
526.6849915,6041211.017900302
524.927318,6041403.667080442
523.186044,6041428.702723472
521.4609475999999,6041293.85195601
519.7518110000001,6042101.499852445
518.0584200000001,6041469.3982922025
516.3805639,6041277.569081403
514.7180356,6041645.781211548
513.0706316000001,6041292.804929768
511.43815149999995,6041407.806411645
509.82039860000003,6041575.856247758
508.2171791999999,6041240.301709943
506.628303,6041462.308900283
505.05358269999994,6041275.144593728
503.4928341,6040839.613998777
501.9458762,6041368.562598035
500.41253059999997,6041157.101256205
498.8926222,6041236.900484494
497.3859785,6041550.426866275
495.89242989999997,6041543.686771218
494.4118094,6041837.121880137
492.943953,6041628.195489941
491.488699,6041344.1364537375
490.04588839999997,6040919.500212189
488.6153648,6041461.093339862
487.19697429999997,6041273.083235596
485.7905654,6041785.981918911
484.39598889999996,6041485.990764572
483.01309800000007,6041033.039654847
481.64174840000004,6040818.235097415
480.28179789999996,6041043.678831449
478.93310639999993,6041123.811265252
477.59553619999997,6041291.477886952
476.2689517,6041341.931144756
474.9532192,6041084.847022873
473.6482074,6041756.992767627
472.35378679999997,6041622.168324841
471.06982989999995,6041479.706022629
469.79621110000005,6041615.628532394
468.53280700000005,6041391.555365706
467.2794956999999,6041701.147074058
466.0361575,6041442.677275763
464.80267410000005,6041298.372174105
463.5789295,6041288.15583695
462.364809,6041702.548939271
461.1601998,6041310.2123973975
459.9649909,6041634.122660865
458.7790727,6041501.945442646
457.6023374,6041573.346528365
456.4346788,6041334.707469612
455.2759921,6041592.391672185
454.12617439999997,6040993.17827988
452.9851239,6041665.0846812315
451.85274060000006,6041364.3353663925
450.7289258,6041160.739984121
449.6135822,6041423.602367387
448.5066141,6041121.701521887
447.407927,6041309.536564903
446.317428,6041412.766131671
445.23502520000005,6041216.69199759
444.1606283,6041297.115945922
443.0941482,6041380.045584613
442.03549699999996,6041398.683313552
440.9845882,6041457.527766999
439.9413364,6041753.811528212
438.9056575,6041806.579507514
437.87746860000004,6041052.794514039
436.85668780000003,6041198.98605874
435.8432345,6041324.752446238
434.83702930000004,6041821.183632137
433.83799369999997,6041060.538530872
432.84605039999997,6041379.710569307
431.8611232,6041483.727331987
430.8831369,6040860.611772127
429.9120175,6041191.720486739
428.94769169999995,6037435.754669238
427.9900874,6024089.7487989385
427.03913370000004,5998779.145822539
426.0947602,5958553.505369407
425.1568978,5901559.597503868
424.22547829999996,5828468.468004447
423.3004343,5738402.431387602
422.3816994,5632592.841783654
421.4692081,5520277.326994431
420.56289569999996,5412579.849813302
419.66269850000003,5316017.482507668
418.7685535,5236859.864801062
417.8803987,5179278.191667424
416.9981727,5143484.869710742
416.12181519999996,5129856.540366265
415.25126639999996,5136862.10399349
414.38646760000006,5157914.545454804
413.5273605,5185819.631064349
412.673888,5214120.5428739125
411.8259934,5237533.276736119
410.9836208,5251463.040290424
410.14671519999996,5253240.252332327
409.3152221,5240797.571964618
408.48908789999996,5212695.133667122
407.66825960000006,5169347.444262508
406.8526847,5111841.767492478
406.0423117,5041435.552093228
405.2370896,4962416.829194468
404.43696800000004,4877331.430600637
403.64189730000004,4790209.346544683
402.8518283,4703761.03585546
402.0667126,4622054.998557712
401.28650239999996,4548266.389426282
400.5111505,4482789.199527819
399.7406101,4425722.832656397
398.9748353,4375957.31881396
398.2137806,4331578.358114973
397.457401,4289687.148279565
396.7056521,4246672.960139703
395.9584903,4200410.352960751
395.2158722,4147984.2488154736
394.4777551,4087762.578013597
393.7440968,4019306.6547532775
393.0148555,3943150.791258712
392.2899901,3860427.4288617717
391.56946,3772156.5860552914
390.853225,3680844.5590230883
390.1412452,3588534.36506736
389.43348169999996,3496534.1216521086
388.7298955,3405709.3607861414
388.03044839999995,3317012.530488945
387.3351027,3230714.4408700233
386.6438209,3146288.932258158
385.95656610000003,3061590.836401006
385.2733019,2975368.019185168
384.5939922,2884763.080407808
383.9186014,2788567.474658269
383.2470943,2683291.050066017
382.5794362,2567764.166208073
381.9155926,2440909.395918861
381.2555296,2301538.180835816
380.59921360000004,2151409.34641132
379.9466115,1991585.888900584
379.29769039999996,1824843.8739317309
378.652418,1654857.8070200975
378.0107622,1485027.6262820181
377.37269130000004,1319090.684199275
376.73817410000004,1160993.9148674852
376.1071796,1013907.9721730709
375.47967719999997,879633.4440704625
374.8556368,760244.2480184941
374.2350283,655730.0888782925
373.6178223,566543.7509120794
373.0039896,491701.965098409
372.3935012,429318.9030530221
371.78632860000005,378536.17974055995
371.1824436,337364.27068883745
370.5818182,304040.8354746816
369.98442489999996,277209.4651687275
369.39023629999997,255391.61694094626
368.7992255,237327.92124489218
368.2113658,222178.7602475876
367.6266307,209481.37471676327
367.0449943,198442.48724564386
366.4664305,188998.13032867745
365.89091410000003,180590.03999167058
365.3184196,173088.1014674872
364.7489221,166384.7207544446
364.18239689999996,160322.14430521821
363.61881960000005,154807.0767386608
363.058166,149712.90104741615
362.50041219999997,144977.29543899294
361.94553460000003,140487.92429179116
361.3935098,136130.10167478275
360.8443147,131867.87894098493
360.29792630000003,127654.65347043786
359.754322,123414.18956216973
359.2134795,119175.93380140008
358.6753765,114899.87336110562
358.1399912,110580.17395092867
357.6073018,106311.06414118646
357.077287,102095.50379452533
356.5499253,97941.79359858316
356.025196,93940.0348427298
355.50307799999996,90037.68962526676
354.983551,86275.19018114581
354.4665945,82658.77300545457
353.95218839999995,79206.23632677065
353.4403127,75886.54331449895
352.9309478,72657.72969985133
352.42407410000004,69528.11656126946
351.9196722,66510.66417435651
351.4177232,63589.39187703124
350.91820789999997,60761.5410703883
350.4211078,58022.46312065624
349.9264043,55411.698022774406
349.434079,52864.647905602214
348.9441137,50422.23799922331
348.45649060000005,48087.98500045001
347.97119169999996,45862.71518101968
347.48819960000003,43710.75418056214
347.0074967,41653.555235356354
346.5290657,39692.11540662429
346.0528897,37790.41434289149
345.5789517,35994.122265492166
345.1072349,34287.262817193936
344.6377228,32686.258057139432
344.17039889999995,31165.46925813044
343.70524710000007,29730.06826668891
343.24225110000003,28382.566151058087
342.7813952,27097.85725325168
342.32266339999995,25890.779169322817
341.8660403,24717.06523770605
341.4115102,23561.26704734808
340.959058,22393.045719999056
340.5086685,21239.62104673068
340.06032660000005,20076.865005536183
339.6140175,18945.626652113693
339.1697264,17825.62316290133
338.7274388,16718.07044756442
338.28714019999995,15647.132586251077
337.8488164,14621.980900471277
337.41245310000005,13655.881735156221
336.9780363,12767.649789439507
336.5455522,11916.639630954589
336.114987,11114.49638862326
335.686327,10343.614155334672
335.2595588,9593.956185377021
334.834669,8895.202384843109
334.4116443,8226.089535700828
333.9904716,7563.241704361046
333.57113799999996,6909.804939602479
333.1536305,6270.082840227282
332.73793639999997,5631.566866933064
332.32404310000004,5004.838582758857
331.91193799999996,4400.621947141413
331.5016088,3799.6522850315214
331.0930432,3201.112655722445
330.6862289,2622.6272938352154
330.281154,2098.7318889130843
329.8778065,1626.110272496178
329.47617460000004,1215.995041140964
329.07624649999997,868.3355571461403
328.6780106,581.004069926297
328.2814555,361.5725809651963
327.88656960000003,216.83044074334632
327.4933418,121.6590869776613
327.1017607,60.34674631266111
326.7118154,27.746901233733478
326.32349480000005,8.625638504727846
325.93678789999996,-0.14544924165597006
325.5516841,0.5831317479012921
325.16817260000005,-4.031605044849633
324.7862428,3.299046078986826
324.40588419999995,1.4257714378261868
324.0270864,-5.2098200940904835
323.649839,-1.5415135916930482
323.2741319,-2.298710676133924
322.8999548,2.0376708996896133
322.5272977,1.1494995999722872
322.1561508,-4.173916929152578
321.786504,1.3103394392709369
321.4183476,3.3248320734724106
321.0516719,3.425310170424175
320.6864673,-0.12888579541179007
320.3227243,-4.368330801675376
319.96043330000003,-2.0698876904093653
319.5995851,-0.8861877636841136
319.2401704,-0.6973366797842062
318.8821799,-1.9915753248315933
318.5256045,-1.7391580956432648
318.1704352,0.06338499252649075
317.8166631,0.10045033207165532
317.4642791,-0.25880385542393103
317.1132746,-1.1816972394252656
316.76364069999994,-1.0531797350026988
316.4153688,0.21563887986736305
316.06845039999996,0.6506517618770146
315.72287689999996,-0.8675768696061613
315.37863980000003,1.0226290507676603
315.0357308,-1.05460873137272
314.6941415,4.389324058294887
314.3538639,-0.476780439373169
314.0148896,-0.4137496800423347
313.6772106,-0.9206722446710066
313.3408189,0.008692880722189099
313.00570639999995,-1.7230962360590734
312.67186549999997,-0.7824253874082955
312.33928810000003,5.207364626551495
312.0079665,-1.997839987383244
311.6778931,3.2483132735885247
311.34906010000003,-0.6254726251717198
311.0214601,1.2800883918319508
310.6950856,0.3043367189916075
310.369929,2.6054203854485127
310.04598300000004,-4.968983585621119
309.7232403,-0.3652831508541999
309.4016935,1.0664635365810275
309.0813356,-0.5459244687075065
308.7621594,0.664039506065661
308.4441577,-2.4520684736646605
308.1273236,1.9278613436976169
307.8116501,-0.7986317534883941
307.49713019999996,3.0745422586117077
307.18375710000004,1.872264361093027
306.871524,-2.666623548899924
306.5604242,-0.5436452230339346
306.2504509,0.7066073034519682
