wave,flux
1817.164934,-21.40066591116752
1790.1022050000001,16.243766997055527
1763.812741,5.819019401334801
1738.2646949999998,49.46688264427291
1713.427949,99.54355778537152
1689.273995,1656.7336887446836
1665.7758310000002,5021.142017856831
1642.907862,10332.423469864654
1620.64581,17502.09489080597
1598.9666300000001,26524.72491497926
1577.8484310000001,37443.416383699616
1557.270407,50258.97278483874
1537.212767,64841.780633667855
1517.65668,78812.94687359354
1498.5842089999999,91406.9223431778
1479.978265,102669.62380681466
1461.822555,112432.3885114914
1444.101535,120960.18676925391
1426.800368,128395.15993102825
1409.904887,134405.96410270795
1393.401553,139340.47992970253
1377.2774220000001,143964.31209544663
1361.520115,148734.64254594542
1346.117782,153695.84539498627
1331.059081,158529.96624174973
1316.3331449999998,163183.80645259938
1301.92956,167667.5141776248
1287.838342,171743.9934640442
1274.049912,175604.61908587144
1260.5550779999999,179070.66727101113
1247.345017,182309.75337335488
1234.4112519999999,185533.49313224872
1221.74564,188399.8812127652
1209.340352,191381.58534569704
1197.187859,194416.85082894922
1185.28092,197645.04685061265
1173.612564,200836.4500664181
1162.1760800000002,204306.73005780322
1150.9650060000001,207818.5842620408
1139.973115,211486.5086712009
1129.194406,215313.04409771092
1118.623093,219208.46878403716
1108.253594,222987.1133511008
1098.0805269999998,227016.86836390183
1088.098695,230744.69459752817
1078.303081,235225.41465634533
1068.688841,240007.93418371215
1059.251295,245876.0865637661
1049.9859199999999,252090.74605559895
1040.8883449999998,260900.06178532337
1031.9543429999999,271304.85311495373
1023.1798259999999,283964.2482750801
1014.5608390000001,298857.8259629432
1006.0935529999999,316028.81041492545
997.774265,334985.6070611532
989.5993858999999,354777.4493966125
981.5654412999999,375703.19817703107
973.6690651,396690.52790939406
965.9069952,416462.4610909914
958.2760697000001,434925.421501208
950.7732231000001,451771.1753703506
943.3954827,465966.2229516525
936.1399648,478408.2563258785
929.0038716,488984.360895632
921.9844879000001,496779.1774682956
915.0791782,503765.7107342468
908.2853836000002,509449.5251477654
901.6006193,516231.88514558563
895.0224714,524098.63054557494
888.548595,533354.6652363762
882.1767113,547197.4338424279
875.9046055,565493.7326546713
869.7301242999998,587906.9396294847
863.6511742999999,617630.8220568504
857.6657193,654902.6254222804
851.7717787,699744.372660978
845.9674256000001,756429.3679699777
840.2507849,824234.4939985181
834.6200316000001,905583.4587359069
829.0733892000001,1002999.8431429088
823.6091279,1113999.9072620913
818.2255633999999,1237525.6245533037
812.9210552000001,1367579.1099802835
807.694005,1505514.6023114496
802.5428559,1644647.134924287
797.4660904,1785485.6019128824
792.4622299,1928495.0433766847
787.5298327,2081458.510433204
782.6674933999999,2254706.132798984
777.8738417999999,2464016.6698814183
773.1475413,2719841.976526658
768.4872882999999,3009304.8316481686
763.8918112000001,3344124.064787235
759.3598692,3713806.654046745
754.8902515999999,4104704.872012778
750.4817767999999,4503574.378512894
746.1332914,4882851.769486127
741.8436694000001,5208382.893255379
737.6118116,5479211.855843599
733.4366444,5685656.149923315
729.3171195,5848145.83151693
725.2522127999999,5950795.065654683
721.2409241,6013885.666123943
717.282276,6036011.7022960875
713.3753136,6042816.017241282
709.5191037000001,6041375.903353899
705.7127343,6041831.052885108
701.9553139,6038733.393631774
698.2459709,6041438.727178697
694.5838534,6040968.148216573
690.9681281000001,6041421.357122097
687.3979803,6040559.14412823
683.8726131,6041082.944612209
680.3912472999999,6042266.099026505
676.9531202000001,6039690.189199857
673.557486,6043423.090032512
670.2036149,6041558.138452051
666.8907926,6042444.681630726
663.6183202999999,6042062.521214343
660.3855139,6042315.3999772975
657.1917038,6040361.186067573
654.0362346,6041776.4418523135
650.9184646000001,6040314.522211879
647.8377654,6039693.697134385
644.7935217999999,6040747.755221298
641.7851312999999,6042868.767628023
638.8120038,6040149.297979162
635.8735614,6040925.514283538
632.9692378999999,6043235.113937887
630.0984786,6039157.213302065
627.2607402000001,6041164.235560154
624.4554901,6040340.724977163
621.6822068,6041543.310960458
618.940379,6041217.373152464
616.2295054,6041195.917964477
613.549095,6041571.940001423
610.8986664,6041310.900028973
608.2777476,6041123.120981582
605.6858758999999,6040949.508896233
603.1225977000001,6041349.694823401
600.5874682,6041915.721648757
598.0800512,6041242.330843853
595.5999188999999,6041569.460300484
593.1466518,6041685.879054767
590.7198384999999,6041689.584341252
588.3190752,6041481.8819824485
585.943966,6041662.342010908
583.5941226,6041493.549466939
581.2691637,6041252.113727454
578.9687155,6041270.043628311
576.692411,6041614.310162272
574.4398902,6041660.199953721
572.2107997,6041472.792799316
570.0047927,6041536.7447366975
567.8215287,6041241.170046672
565.6606737000001,6041800.654608005
563.5218996,6041423.516467682
561.4048845,6041672.252210553
559.3093121,6041188.977192173
557.2348721,6041711.883511659
555.1812597,6041590.578098043
553.1481756000001,6041343.586375156
551.1353259,6041421.763716343
549.1424218999999,6041429.744008894
547.1691801,6041278.110811876
545.2153222000001,6041457.10720394
543.2805745000001,6041455.366225765
541.3646685,6041455.771869685
539.46734,6041267.50683743
537.5883299,6041586.648192867
535.7273833,6041555.263352582
533.8842498,6041874.62698396
532.0586836,6041977.024345555
530.2504428000001,6041525.585556061
528.45929,6041452.654791531
526.6849915,6041632.627506328
524.927318,6041498.330172262
523.186044,6041136.43239116
521.4609475999999,6041363.880077015
519.7518110000001,6041444.619400962
518.0584200000001,6041096.9325382225
516.3805639,6041669.106755228
514.7180356,6041401.294916892
513.0706316000001,6041705.199476047
511.43815149999995,6041603.06529396
509.82039860000003,6041331.758661226
508.2171791999999,6041625.344844952
506.628303,6041111.870048644
505.05358269999994,6041480.066967882
503.4928341,6041198.439637653
501.9458762,6041194.949114663
500.41253059999997,6041229.15864524
498.8926222,6041488.335893911
497.3859785,6041471.224095891
495.89242989999997,6041437.739260628
494.4118094,6041766.291054169
492.943953,6041681.395871111
491.488699,6041686.348817325
490.04588839999997,6040990.541617315
488.6153648,6041514.004526067
487.19697429999997,6041810.066856806
485.7905654,6041530.9626445165
484.39598889999996,6041132.811105291
483.01309800000007,6041582.825779582
481.64174840000004,6041863.4811240425
480.28179789999996,6041383.431638553
478.93310639999993,6041603.649657243
477.59553619999997,6041612.417624167
476.2689517,6041378.050186448
474.9532192,6041357.978914098
473.6482074,6041259.592614291
472.35378679999997,6041150.027143323
471.06982989999995,6041080.583147476
469.79621110000005,6041612.375968424
468.53280700000005,6040939.674233913
467.2794956999999,6041247.843698038
466.0361575,6041708.372917348
464.80267410000005,6041999.507005781
463.5789295,6041455.586110962
462.364809,6041067.874224412
461.1601998,6041772.0632223375
459.9649909,6041284.240623943
458.7790727,6041872.169642802
457.6023374,6041179.827414327
456.4346788,6041320.2430116525
455.2759921,6041420.162082336
454.12617439999997,6041494.069066107
452.9851239,6041599.41820065
451.85274060000006,6041200.2025221875
450.7289258,6040911.439090067
449.6135822,6041435.890128256
448.5066141,6041247.579574337
447.407927,6041718.0908696875
446.317428,6042085.493528902
445.23502520000005,6041554.515475924
444.1606283,6041226.921342971
443.0941482,6041147.28338938
442.03549699999996,6041169.014756292
440.9845882,6041036.421114531
439.9413364,6041683.1413244475
438.9056575,6041418.441438261
437.87746860000004,6041309.581173765
436.85668780000003,6041347.740357969
435.8432345,6041750.744814252
434.83702930000004,6041529.471390217
433.83799369999997,6041647.905672885
432.84605039999997,6041249.985439435
431.8611232,6041485.6831164025
430.8831369,6041504.513212828
429.9120175,6041195.796118401
428.94769169999995,6041247.8763072025
427.9900874,6041842.089241957
427.03913370000004,6041397.378759937
426.0947602,6041533.331092442
425.1568978,6041545.09480732
424.22547829999996,6041517.059326154
423.3004343,6041273.9267276535
422.3816994,6041840.367675714
421.4692081,6041301.772131763
420.56289569999996,6041484.543608828
419.66269850000003,6041095.814827897
418.7685535,6041347.973953515
417.8803987,6041831.664583645
416.9981727,6041697.081284327
416.12181519999996,6040559.1022618525
415.25126639999996,6041052.593676468
414.38646760000006,6041210.08305524
413.5273605,6041082.916939217
412.673888,6041902.991368206
411.8259934,6041600.605891689
410.9836208,6041369.063249935
410.14671519999996,6041275.847776744
409.3152221,6041337.575144348
408.48908789999996,6041509.515945752
407.66825960000006,6041145.070019335
406.8526847,6041347.496806833
406.0423117,6041613.06188303
405.2370896,6036759.5608611535
404.43696800000004,6014270.151967703
403.64189730000004,5961665.655573895
402.8518283,5867705.668736535
402.0667126,5723274.4904906815
401.28650239999996,5521665.112244392
400.5111505,5257500.485018584
399.7406101,4924563.659536026
398.9748353,4529027.398251636
398.2137806,4094113.4122796417
397.457401,3642390.312443876
396.7056521,3193409.6942249755
395.9584903,2763807.3875016426
395.2158722,2367152.5781626226
394.4777551,2014563.5486608031
393.7440968,1717076.4611834462
393.0148555,1475857.7011073024
392.2899901,1283231.0354652388
391.56946,1131152.3691412862
390.853225,1011689.1705659943
390.1412452,918097.5792193931
389.43348169999996,844094.4209125594
388.7298955,785269.039696724
388.03044839999995,736335.294974223
387.3351027,695285.2240410871
386.6438209,660116.4745380258
385.95656610000003,629664.0910817579
385.2733019,602541.686652019
384.5939922,578546.1164756197
383.9186014,557285.6508793429
383.2470943,538463.7175693712
382.5794362,521861.40267414146
381.9155926,506921.7675134071
381.2555296,493223.42247219407
380.59921360000004,480531.6848365356
379.9466115,468302.2079611043
379.29769039999996,456423.1692731975
378.652418,444768.9001832462
378.0107622,433255.85078001133
377.37269130000004,421728.7163776665
376.73817410000004,410295.06222165545
376.1071796,398723.8099217103
375.47967719999997,387306.9079812107
374.8556368,375923.9156339412
374.2350283,364456.3535718509
373.6178223,352876.4614607898
373.0039896,341202.63208024856
372.3935012,329347.4989668497
371.78632860000005,317492.7209535173
371.1824436,305497.0248380158
370.5818182,293523.6549278513
369.98442489999996,281586.8037431091
369.39023629999997,269864.0306262545
368.7992255,258331.73138613428
368.2113658,247181.31567846925
367.6266307,236447.80756098477
367.0449943,226173.58761186944
366.4664305,216276.16493557167
365.89091410000003,206781.06465278266
365.3184196,197713.54581117997
364.7489221,189002.05437334412
364.18239689999996,180716.7602653497
363.61881960000005,172647.59867597462
363.058166,164918.25579896473
362.50041219999997,157530.06189998676
361.94553460000003,150522.6912447529
361.3935098,143916.88214180307
360.8443147,137637.83877276434
360.29792630000003,131708.64689226233
359.754322,126108.00313665591
359.2134795,120813.85458889016
358.6753765,115818.64312212588
358.1399912,111008.46511575699
357.6073018,106262.83023138689
357.077287,101625.33535181178
356.5499253,96979.3880945294
356.025196,92360.81227967331
355.50307799999996,87788.95558135648
354.983551,83321.0395414484
354.4665945,78893.40791101076
353.95218839999995,74664.0211528241
353.4403127,70576.29662932301
352.9309478,66675.33344351525
352.42407410000004,63020.64526258048
351.9196722,59514.61950188961
351.4177232,56115.667034960636
350.91820789999997,52728.78858730584
350.4211078,49417.829172671816
349.9264043,46082.7516291236
349.434079,42765.60771353921
348.9441137,39428.369585712215
348.45649060000005,36022.49650256405
347.97119169999996,32692.262170979717
347.48819960000003,29481.529492585967
347.0074967,26385.728764728254
346.5290657,23388.47637015233
346.0528897,20482.47290716697
345.5789517,17655.815294903914
345.1072349,14981.09997396296
344.6377228,12505.187618245378
344.17039889999995,10160.224550504769
343.70524710000007,7989.243510165467
343.24225110000003,6001.264961231862
342.7813952,4306.306320105548
342.32266339999995,2952.298036602905
341.8660403,1917.443431388703
341.4115102,1139.054534910318
340.959058,594.2188227609064
340.5086685,257.1595493238739
340.06032660000005,70.33912932668153
339.6140175,21.451767538258494
339.1697264,1.4198327912811126
338.7274388,0.3767521801718514
338.28714019999995,1.1177767945684909
337.8488164,0.22286633224246524
337.41245310000005,3.0728468908498225
336.9780363,-1.5633725485172654
336.5455522,6.350461367206632
336.114987,1.6614358502043869
335.686327,-0.979422093009616
335.2595588,2.337375164759926
334.834669,-2.489345684263344
334.4116443,0.6498599572420952
333.9904716,-0.18511173621597385
333.57113799999996,-0.6571420355960851
333.1536305,1.6350597946895975
332.73793639999997,2.3337542812694343
332.32404310000004,-1.2538116393470091
331.91193799999996,-3.2495694754993636
331.5016088,1.6075557846080446
331.0930432,1.6703765019211092
330.6862289,1.0332276637318796
330.281154,-4.214406358509977
329.8778065,-2.2461511947857566
329.47617460000004,0.8150097822084611
329.07624649999997,-0.2211496087452336
328.6780106,1.2817689287045062
328.2814555,1.9472192081037567
327.88656960000003,-4.708319861114137
327.4933418,-0.07889813757647142
327.1017607,2.260021525145249
326.7118154,0.9320555479892568
326.32349480000005,-2.7115050537002783
325.93678789999996,-0.9979976939776456
325.5516841,-1.3245667161044683
325.16817260000005,-3.9419070652015127
324.7862428,-0.06190078093904125
324.40588419999995,-1.3052729986183258
324.0270864,2.961675483997627
323.649839,4.971204028529738
323.2741319,0.35703018955883864
322.8999548,-0.9447945431498296
322.5272977,-0.501444978808486
322.1561508,-1.1643557948989514
321.786504,-1.4087618982673695
321.4183476,2.630698366378917
321.0516719,0.26615354389637896
320.6864673,2.4963656161711394
320.3227243,-0.8540199027047986
319.96043330000003,0.9363451033388752
319.5995851,-2.044543516992518
319.2401704,2.820718177307376
318.8821799,-3.162368695471152
318.5256045,2.398789986703639
318.1704352,2.7694197450276214
317.8166631,-2.6182858488110856
317.4642791,-0.4928608085027976
317.1132746,-5.524745432405979
316.76364069999994,-2.261916837059208
316.4153688,-0.06983620255174644
316.06845039999996,-3.589805628605313
315.72287689999996,-3.823491160150416
315.37863980000003,-3.003648006912831
315.0357308,4.026321520353139
314.6941415,-2.737661739338469
314.3538639,0.8554385726596981
314.0148896,0.5915916565561191
313.6772106,-3.7441272184653154
313.3408189,2.2320420186242806
313.00570639999995,-2.2987516184539447
312.67186549999997,1.6601233962520223
312.33928810000003,-2.3468236755201755
312.0079665,-2.23038658687382
311.6778931,-2.331251002670018
311.34906010000003,-0.4670273847051591
311.0214601,1.6378144727672712
310.6950856,1.1044175306271191
310.369929,-0.9163333608248816
310.04598300000004,-3.440732550024848
309.7232403,-2.103991921115816
309.4016935,0.8644231819233553
309.0813356,2.0289169644030456
308.7621594,0.032883404367279774
308.4441577,-0.5936044006198228
308.1273236,0.006148519760429477
307.8116501,-4.92297190011324
307.49713019999996,1.3473559397157069
307.18375710000004,1.658232070978847
306.871524,-0.9120941770961258
306.5604242,-3.076722630125913
306.2504509,1.9317429741203287
