wave,flux
1817.164934,5.812008697046887
1790.1022050000001,-0.4660599285418163
1763.812741,-1.335036038328454
1738.2646949999998,55.07529733621258
1713.427949,169.447142754081
1689.273995,428.22847016293093
1665.7758310000002,961.0498878107331
1642.907862,1856.1556371082413
1620.64581,3206.2285647386393
1598.9666300000001,5073.210093696302
1577.8484310000001,7494.383903059615
1557.270407,10607.125717251976
1537.212767,14325.795487770307
1517.65668,18552.898193457582
1498.5842089999999,23266.003406850807
1479.978265,28265.425724073662
1461.822555,33500.20458044669
1444.101535,38830.962844219575
1426.800368,44237.49360193417
1409.904887,49571.0100216946
1393.401553,54868.08562821493
1377.2774220000001,60001.48979536728
1361.520115,65075.85545988579
1346.117782,70119.28639867532
1331.059081,75108.54050899747
1316.3331449999998,79966.84498109615
1301.92956,84887.20080255737
1287.838342,89763.75678608708
1274.049912,94623.09784700896
1260.5550779999999,99554.2468554381
1247.345017,104273.93878500351
1234.4112519999999,109017.39509020546
1221.74564,113854.90948090145
1209.340352,118414.78858423007
1197.187859,123132.06852837087
1185.28092,127682.47007871704
1173.612564,132306.6203970904
1162.1760800000002,136895.10704765562
1150.9650060000001,141356.21011428672
1139.973115,146016.4597095887
1129.194406,150564.0735252905
1118.623093,155214.1734507859
1108.253594,159771.97410670356
1098.0805269999998,164402.46195483865
1088.098695,168902.17314601108
1078.303081,173580.61913907249
1068.688841,178106.30472195012
1059.251295,183132.13199961372
1049.9859199999999,188114.2851019285
1040.8883449999998,193394.10449235147
1031.9543429999999,199121.45737174668
1023.1798259999999,205544.37189886105
1014.5608390000001,212464.27350540235
1006.0935529999999,220052.6512264647
997.774265,228197.91518588
989.5993858999999,237122.46465972392
981.5654412999999,246732.53781806165
973.6690651,256589.84601984703
965.9069952,266984.41173189343
958.2760697000001,277912.83037869143
950.7732231000001,288841.38185098645
943.3954827,299839.2207660164
936.1399648,310825.53012296715
929.0038716,321652.30729208066
921.9844879000001,332082.01641339745
915.0791782,342612.4930248828
908.2853836000002,352894.30300649634
901.6006193,363460.66808961076
895.0224714,373422.56649980904
888.548595,384295.80575208826
882.1767113,395364.52759017743
875.9046055,407194.43675712455
869.7301242999998,420136.66701755946
863.6511742999999,433986.9982309981
857.6657193,449962.6272435821
851.7717787,468294.5675319589
845.9674256000001,489092.07520123076
840.2507849,512491.7761856298
834.6200316000001,540073.6753559238
829.0733892000001,571824.9069429202
823.6091279,606840.8612026746
818.2255633999999,647162.2392713458
812.9210552000001,692230.7004960728
807.694005,742741.4376289877
802.5428559,795639.4979915221
797.4660904,855650.9734612347
792.4622299,919567.056921222
787.5298327,990764.1752033624
782.6674933999999,1067031.4038358747
777.8738417999999,1156519.970735101
773.1475413,1255770.3875413635
768.4872882999999,1378920.13147326
763.8918112000001,1522748.3599119624
759.3598692,1694142.4823850398
754.8902515999999,1899151.4568613132
750.4817767999999,2139784.8576160567
746.1332914,2414917.594073052
741.8436694000001,2729810.338324788
737.6118116,3077305.8998950063
733.4366444,3443750.4586237436
729.3171195,3820924.282826688
725.2522127999999,4197092.392057842
721.2409241,4557715.973441324
717.282276,4894297.1586574465
713.3753136,5187566.670928883
709.5191037000001,5438120.067764633
705.7127343,5635984.976614749
701.9553139,5783402.678204045
698.2459709,5892941.899357922
694.5838534,5961882.32679875
690.9681281000001,6005797.241161306
687.3979803,6031618.369076758
683.8726131,6039956.540864518
680.3912472999999,6040905.236158393
676.9531202000001,6041223.808093705
673.557486,6042226.082515254
670.2036149,6042093.033563044
666.8907926,6041507.590364093
663.6183202999999,6042220.02328518
660.3855139,6041382.385898958
657.1917038,6041001.553681487
654.0362346,6040853.095355181
650.9184646000001,6041081.350239553
647.8377654,6041461.9654672025
644.7935217999999,6042683.719507228
641.7851312999999,6040213.54704674
638.8120038,6040705.884619601
635.8735614,6041471.305070319
632.9692378999999,6041625.031522183
630.0984786,6041569.534513945
627.2607402000001,6042446.654449902
624.4554901,6043482.797363495
621.6822068,6042259.747457737
618.940379,6041496.9800403165
616.2295054,6041749.601657135
613.549095,6041206.805494977
610.8986664,6041532.782032273
608.2777476,6041408.4891474815
605.6858758999999,6041625.494289714
603.1225977000001,6042022.976893527
600.5874682,6041132.6936863065
598.0800512,6041324.714993055
595.5999188999999,6041423.800859456
593.1466518,6041162.302209637
590.7198384999999,6041604.650733255
588.3190752,6041190.195768164
585.943966,6041325.575953278
583.5941226,6041219.873066376
581.2691637,6041701.47356947
578.9687155,6041282.839129315
576.692411,6041857.990442325
574.4398902,6041830.616337342
572.2107997,6041704.4765813565
570.0047927,6041474.455059889
567.8215287,6041433.714188145
565.6606737000001,6041841.23372437
563.5218996,6041630.444767335
561.4048845,6041621.488281625
559.3093121,6041425.06635518
557.2348721,6041642.47249403
555.1812597,6041657.4004570125
553.1481756000001,6041318.368457328
551.1353259,6041138.355857798
549.1424218999999,6041581.199142042
547.1691801,6041268.360553516
545.2153222000001,6041404.1676925775
543.2805745000001,6041105.099010077
541.3646685,6041669.001414922
539.46734,6041571.397491145
537.5883299,6041603.3325198665
535.7273833,6041402.725479928
533.8842498,6041427.664891123
532.0586836,6041830.828472435
530.2504428000001,6041438.755913482
528.45929,6041387.760072453
526.6849915,6041410.5238159625
524.927318,6041393.07401666
523.186044,6041298.1039285725
521.4609475999999,6041192.617777928
519.7518110000001,6041265.403603612
518.0584200000001,6041526.388371653
516.3805639,6041406.281425172
514.7180356,6041332.382471163
513.0706316000001,6041744.939833245
511.43815149999995,6041404.790390744
509.82039860000003,6040706.177672155
508.2171791999999,6041775.842428988
506.628303,6041374.9032489965
505.05358269999994,6041597.464230311
503.4928341,6041242.795637682
501.9458762,6041239.6503353575
500.41253059999997,6041490.001329664
498.8926222,6041087.825670925
497.3859785,6041397.998055797
495.89242989999997,6041573.213824588
494.4118094,6041544.10393033
492.943953,6041313.851080479
491.488699,6041358.1574723525
490.04588839999997,6041946.876825606
488.6153648,6041079.699454183
487.19697429999997,6041233.677400455
485.7905654,6041612.555610193
484.39598889999996,6041925.756286187
483.01309800000007,6041000.3804827165
481.64174840000004,6041536.608581957
480.28179789999996,6041226.1945837615
478.93310639999993,6041199.037036617
477.59553619999997,6041658.8050008975
476.2689517,6041426.462089597
474.9532192,6041305.264443674
473.6482074,6041635.783744263
472.35378679999997,6041390.57358751
471.06982989999995,6041371.015819915
469.79621110000005,6041648.040871432
468.53280700000005,6040196.970681332
467.2794956999999,6034689.341236033
466.0361575,6022072.631743632
464.80267410000005,5999389.031290428
463.5789295,5964069.1916583525
462.364809,5912574.670048749
461.1601998,5843454.091987704
459.9649909,5752641.836057193
458.7790727,5641619.475772011
457.6023374,5513059.082989633
456.4346788,5369792.9232127685
455.2759921,5215644.174244875
454.12617439999997,5053709.522414704
452.9851239,4886909.033777134
451.85274060000006,4718196.671874532
450.7289258,4551108.089792212
449.6135822,4387558.557210753
448.5066141,4227285.96462653
447.407927,4071085.661615057
446.317428,3919014.9915924575
445.23502520000005,3772251.6349277683
444.1606283,3629841.0264067743
443.0941482,3493497.2781110606
442.03549699999996,3363256.706251659
440.9845882,3238641.672765251
439.9413364,3120715.5204755114
438.9056575,3008248.921999392
437.87746860000004,2901858.581183605
436.85668780000003,2800345.920938433
435.8432345,2703182.356247929
434.83702930000004,2610415.560503633
433.83799369999997,2521006.3741407567
432.84605039999997,2434649.416614517
431.8611232,2351501.9621894937
430.8831369,2271152.87228824
429.9120175,2193934.2776505
428.94769169999995,2119521.3661679258
427.9900874,2048237.875350196
427.03913370000004,1979701.5006319282
426.0947602,1914468.4487983868
425.1568978,1852052.4536778475
424.22547829999996,1792365.827857415
423.3004343,1735276.982868926
422.3816994,1680479.2001487187
421.4692081,1627585.7450932504
420.56289569999996,1576394.3943937463
419.66269850000003,1526625.9044021037
418.7685535,1477689.0362566868
417.8803987,1429775.943249939
416.9981727,1382167.3012036835
416.12181519999996,1335098.004423895
415.25126639999996,1288233.2515692946
414.38646760000006,1241531.868815607
413.5273605,1195276.4221926879
412.673888,1149239.3883285827
411.8259934,1103938.463040463
410.9836208,1059518.6808286754
410.14671519999996,1016297.2778377745
409.3152221,974339.989536583
408.48908789999996,933718.1031641419
407.66825960000006,894741.211659813
406.8526847,857076.1015624694
406.0423117,820814.1865711234
405.2370896,785554.1130879694
404.43696800000004,751259.6756833716
403.64189730000004,717576.3064517195
402.8518283,684309.040705575
402.0667126,651318.8790741232
401.28650239999996,618448.6205061997
400.5111505,585777.6437801139
399.7406101,553231.324342904
398.9748353,521110.64551300474
398.2137806,489335.0697607805
397.457401,458219.3303172615
396.7056521,428015.8156623957
395.9584903,398865.1439586738
395.2158722,370918.1636368681
394.4777551,344316.25722531625
393.7440968,319266.0564842907
393.0148555,295755.2117125225
392.2899901,273843.55948676326
391.56946,253498.17718480786
390.853225,234782.4247024193
390.1412452,217446.0099707591
389.43348169999996,201471.70334548128
388.7298955,186795.34880892828
388.03044839999995,173200.52653812774
387.3351027,160676.92034126632
386.6438209,149147.33955985995
385.95656610000003,138457.2218939388
385.2733019,128607.08112860615
384.5939922,119465.13057616574
383.9186014,111048.52287145596
383.2470943,103244.35112279699
382.5794362,96062.6028407208
381.9155926,89433.02088458695
381.2555296,83334.46843730625
380.59921360000004,77674.51878452352
379.9466115,72471.08153924228
379.29769039999996,67680.7755150839
378.652418,63279.16661662914
378.0107622,59227.62684863617
377.37269130000004,55506.70688871061
376.73817410000004,52101.33541225284
376.1071796,49000.45604834063
375.47967719999997,46139.624703925394
374.8556368,43516.965896000554
374.2350283,41099.169845400334
373.6178223,38859.934797154034
373.0039896,36785.921226978826
372.3935012,34838.568701186654
371.78632860000005,33001.946447856964
371.1824436,31286.557089787853
370.5818182,29652.04263533558
369.98442489999996,28116.04113748147
369.39023629999997,26656.9245978024
368.7992255,25274.174458232927
368.2113658,23970.69049961125
367.6266307,22731.122433723387
367.0449943,21560.520284406783
366.4664305,20463.392116007537
365.89091410000003,19420.85426770716
365.3184196,18420.507009301306
364.7489221,17481.577028588832
364.18239689999996,16592.126949504633
363.61881960000005,15735.726226027207
363.058166,14926.382429627243
362.50041219999997,14152.935303076967
361.94553460000003,13409.529867077963
361.3935098,12698.83666457517
360.8443147,12034.230014324696
360.29792630000003,11397.502287169804
359.754322,10791.775263804508
359.2134795,10224.758613416967
358.6753765,9675.89231639259
358.1399912,9160.526432548982
357.6073018,8664.312629571174
357.077287,8191.082747467329
356.5499253,7739.926463845883
356.025196,7318.716525394395
355.50307799999996,6903.311637579612
354.983551,6506.744415558649
354.4665945,6116.8906598745125
353.95218839999995,5759.38762159295
353.4403127,5414.161311807974
352.9309478,5090.000724743025
352.42407410000004,4776.874048151952
351.9196722,4481.04349668665
351.4177232,4201.757067262718
350.91820789999997,3925.420949600704
350.4211078,3672.6247497551612
349.9264043,3437.271313090657
349.434079,3206.3123397971726
348.9441137,2981.900157977105
348.45649060000005,2779.7388804922557
347.97119169999996,2576.7385550068343
347.48819960000003,2389.047878366231
347.0074967,2209.119796947674
346.5290657,2040.4537134762202
346.0528897,1881.0723712676447
345.5789517,1726.9604838836362
345.1072349,1579.087231143869
344.6377228,1448.1170675516244
344.17039889999995,1319.650945540412
343.70524710000007,1195.2026719475568
343.24225110000003,1082.3182535996718
342.7813952,968.891874390446
342.32266339999995,867.6771467432937
341.8660403,773.9461015435495
341.4115102,689.4809893929147
340.959058,606.8922388074219
340.5086685,537.415943595904
340.06032660000005,469.89932356152985
339.6140175,413.78370415010085
339.1697264,369.03306454075897
338.7274388,321.3614759732178
338.28714019999995,282.0152753128148
337.8488164,245.10432435287896
337.41245310000005,217.6027906363283
336.9780363,186.194608609855
336.5455522,161.179297176765
336.114987,138.81965376024291
335.686327,126.83216178789604
335.2595588,104.70898139548422
334.834669,90.67111002994156
334.4116443,75.29863185691511
333.9904716,62.870251857009066
333.57113799999996,58.237358555393676
333.1536305,45.21476723453142
332.73793639999997,38.12812275507804
332.32404310000004,28.20834356586826
331.91193799999996,22.389259603219124
331.5016088,17.92332762968909
331.0930432,15.262724437933883
330.6862289,12.324916388712936
330.281154,6.74327266259159
329.8778065,1.4222102685424483
329.47617460000004,6.034269664491911
329.07624649999997,4.29394112881171
328.6780106,2.127735311455836
328.2814555,3.2398528587758766
327.88656960000003,-1.753295514202733
327.4933418,3.031362429143929
327.1017607,-1.9620697585712408
326.7118154,-1.205918135104968
326.32349480000005,-3.2220466169474578
325.93678789999996,-2.8108171083215026
325.5516841,-1.5976988134522758
325.16817260000005,0.16972530709961078
324.7862428,-3.6555174770508905
324.40588419999995,1.4140950366042642
324.0270864,1.6918259286255806
323.649839,-0.4093478894020995
323.2741319,1.2601515527997078
322.8999548,1.261005618505605
322.5272977,-1.8789008949139696
322.1561508,-5.292529866024768
321.786504,1.2456287905921035
321.4183476,0.8459766261695943
321.0516719,-0.8520065897050925
320.6864673,-3.4408734378285124
320.3227243,-3.2932189589586365
319.96043330000003,-5.319958036812311
319.5995851,-2.679618729051708
319.2401704,-1.9027016280104858
318.8821799,-4.938746501132309
318.5256045,0.0436043267536711
318.1704352,-1.6202405627348635
317.8166631,-1.902868318448289
317.4642791,0.11489790140435704
317.1132746,0.0645576946685864
316.76364069999994,3.929577346859303
316.4153688,-0.3716820755367352
316.06845039999996,2.2740217113263905
315.72287689999996,1.8221985073875069
315.37863980000003,0.16799665526928567
315.0357308,-0.2665666143615407
314.6941415,-2.002177242940874
314.3538639,0.5884873895801875
314.0148896,2.12521459752033
313.6772106,5.348224102908398
313.3408189,1.1149332575043105
313.00570639999995,-3.0157794479196287
312.67186549999997,-4.655354387929964
312.33928810000003,-3.778129397895104
312.0079665,3.330765911984088
311.6778931,0.08420071660283993
311.34906010000003,3.3086998545994963
311.0214601,0.5359938479893103
310.6950856,0.29201928530020066
310.369929,2.8516138595545346
310.04598300000004,0.6052745710679093
309.7232403,-5.2123958160042685
309.4016935,1.1950486914473393
309.0813356,-0.14588475335271775
308.7621594,0.5068731004664743
308.4441577,-1.7553159401979352
308.1273236,-0.8024664481529019
307.8116501,-1.232772481236717
307.49713019999996,-5.045183888393386
307.18375710000004,0.2524293687610565
306.871524,0.4941481046519345
306.5604242,0.25466264940326633
306.2504509,0.2701817173658746
