wave,flux
1817.164934,-5.848440265553278
1790.1022050000001,4.763253180465176
1763.812741,3.053227197827945
1738.2646949999998,23.109453177035366
1713.427949,83.14716157614244
1689.273995,227.47810991639236
1665.7758310000002,546.9748240567901
1642.907862,1085.348728528564
1620.64581,1864.9294501164734
1598.9666300000001,2993.2307377572356
1577.8484310000001,4450.958559594759
1557.270407,6292.495828192753
1537.212767,8541.463870277224
1517.65668,11090.508433276753
1498.5842089999999,13915.013953781963
1479.978265,16937.089425455233
1461.822555,20134.95433551196
1444.101535,23427.72587510046
1426.800368,26801.845573459923
1409.904887,30182.54565357885
1393.401553,33574.141985409085
1377.2774220000001,36912.150054600716
1361.520115,40301.762930915764
1346.117782,43660.099269458064
1331.059081,46973.14099153112
1316.3331449999998,50391.35518558937
1301.92956,53754.500950562295
1287.838342,57169.92767057334
1274.049912,60543.56551598879
1260.5550779999999,63960.249062267976
1247.345017,67308.07819419977
1234.4112519999999,70713.2166279727
1221.74564,74111.44648675878
1209.340352,77516.14881822346
1197.187859,80849.1946676205
1185.28092,84312.24948467914
1173.612564,87707.73735840098
1162.1760800000002,91049.49522435783
1150.9650060000001,94677.80670340492
1139.973115,98193.1107835286
1129.194406,101767.02394988078
1118.623093,105378.43467562596
1108.253594,108972.05071311515
1098.0805269999998,112655.3975186158
1088.098695,116277.5445219667
1078.303081,120159.78244209194
1068.688841,123907.55086161285
1059.251295,127863.66660708029
1049.9859199999999,131875.7159072008
1040.8883449999998,136111.4629497232
1031.9543429999999,140615.31767540998
1023.1798259999999,145416.8401127973
1014.5608390000001,150782.73656574372
1006.0935529999999,156434.04433683987
997.774265,162448.53202929118
989.5993858999999,169024.16144234606
981.5654412999999,175951.41470919922
973.6690651,183235.96345404972
965.9069952,190667.72947188886
958.2760697000001,198517.1906796337
950.7732231000001,206297.90310169716
943.3954827,214456.17760627574
936.1399648,222436.5751919595
929.0038716,230556.64916865184
921.9844879000001,238717.7890866698
915.0791782,246591.9340326504
908.2853836000002,254511.3244079261
901.6006193,262784.7470926741
895.0224714,270678.0552026101
888.548595,279135.5961091276
882.1767113,287826.930713774
875.9046055,296918.80984952854
869.7301242999998,306653.053942841
863.6511742999999,317235.92151371256
857.6657193,328946.07178285735
851.7717787,341895.1010644671
845.9674256000001,356483.6054404297
840.2507849,372951.26815222815
834.6200316000001,391664.2008394271
829.0733892000001,412727.31555949576
823.6091279,437087.48569417954
818.2255633999999,463731.08586852025
812.9210552000001,494215.680653599
807.694005,526975.6046908625
802.5428559,563276.2515835342
797.4660904,602755.5439133007
792.4622299,644294.5335992799
787.5298327,690041.8960821098
782.6674933999999,741522.9500762445
777.8738417999999,797555.2839310912
773.1475413,863179.2772314516
768.4872882999999,939084.5020419164
763.8918112000001,1030091.3697979116
759.3598692,1139519.391847666
754.8902515999999,1268506.9681045678
750.4817767999999,1418513.3231331266
746.1332914,1593104.3492237208
741.8436694000001,1788714.5002586015
737.6118116,2006190.7061992574
733.4366444,2239392.7496665074
729.3171195,2486655.1838842668
725.2522127999999,2747888.05394996
721.2409241,3019520.9446268873
717.282276,3308253.2014096137
713.3753136,3607606.4164183997
709.5191037000001,3911806.729180312
705.7127343,4217268.826738286
701.9553139,4519005.136822279
698.2459709,4814972.832073597
694.5838534,5090442.007579897
690.9681281000001,5342420.11504116
687.3979803,5549771.531057146
683.8726131,5715481.978034172
680.3912472999999,5838923.358191329
676.9531202000001,5929358.414467586
673.557486,5990806.108815304
670.2036149,6023652.049996895
666.8907926,6039671.190901946
663.6183202999999,6040404.865065036
660.3855139,6041813.176351816
657.1917038,6043068.7345808875
654.0362346,6042072.306950242
650.9184646000001,6041728.743011653
647.8377654,6041231.997067433
644.7935217999999,6041445.519601597
641.7851312999999,6042372.824300802
638.8120038,6041235.033167212
635.8735614,6042073.398328017
632.9692378999999,6041664.147529224
630.0984786,6041710.332044959
627.2607402000001,6041991.247553747
624.4554901,6041033.150324277
621.6822068,6039446.0045706425
618.940379,6041354.307938113
616.2295054,6041755.277620982
613.549095,6041551.6076006815
610.8986664,6041263.870808864
608.2777476,6041679.396119868
605.6858758999999,6041168.391459776
603.1225977000001,6041397.526287186
600.5874682,6041988.606535707
598.0800512,6041700.266437986
595.5999188999999,6041618.712296157
593.1466518,6041820.412161526
590.7198384999999,6041221.71077055
588.3190752,6041445.317768073
585.943966,6041910.026728982
583.5941226,6040857.626912258
581.2691637,6041506.867829758
578.9687155,6041490.549103082
576.692411,6041225.886160118
574.4398902,6041013.363295324
572.2107997,6041155.455469985
570.0047927,6041181.164422899
567.8215287,6041044.355290583
565.6606737000001,6041857.056180092
563.5218996,6041727.2972965585
561.4048845,6041766.771865518
559.3093121,6041589.3542182725
557.2348721,6041686.772691293
555.1812597,6040933.614191557
553.1481756000001,6041752.171071261
551.1353259,6041246.143435728
549.1424218999999,6041425.573043766
547.1691801,6041723.2733407
545.2153222000001,6041665.994380742
543.2805745000001,6041614.576231573
541.3646685,6041376.2549939165
539.46734,6040905.494655497
537.5883299,6041549.03252167
535.7273833,6041373.801216167
533.8842498,6041671.750111595
532.0586836,6041642.670810555
530.2504428000001,6041194.213389196
528.45929,6041393.341899223
526.6849915,6041393.800446019
524.927318,6041487.144705422
523.186044,6041223.173917025
521.4609475999999,6041535.571664377
519.7518110000001,6041862.365365828
518.0584200000001,6041536.867750702
516.3805639,6041443.217915637
514.7180356,6041908.041798238
513.0706316000001,6041215.42382474
511.43815149999995,6041970.01046632
509.82039860000003,6041257.868696057
508.2171791999999,6041272.9361422425
506.628303,6041156.866593817
505.05358269999994,6041691.263330706
503.4928341,6041565.213425287
501.9458762,6041140.4993026415
500.41253059999997,6041523.106662704
498.8926222,6041257.117185729
497.3859785,6041803.9931307975
495.89242989999997,6040906.0206361925
494.4118094,6041352.270440348
492.943953,6041172.527719413
491.488699,6041828.785047637
490.04588839999997,6041027.831014291
488.6153648,6041504.855856648
487.19697429999997,6041677.427248972
485.7905654,6041316.125412143
484.39598889999996,6041349.940650391
483.01309800000007,6041639.55508995
481.64174840000004,6041380.289896388
480.28179789999996,6041287.730314558
478.93310639999993,6041788.9009373775
477.59553619999997,6041416.015966292
476.2689517,6041364.332627643
474.9532192,6041731.766396372
473.6482074,6041195.1956896875
472.35378679999997,6041272.166000241
471.06982989999995,6041673.579619462
469.79621110000005,6041501.321804717
468.53280700000005,6041490.731716986
467.2794956999999,6041530.461635972
466.0361575,6041475.733915806
464.80267410000005,6041530.038571993
463.5789295,6041381.909527044
462.364809,6041501.2955678925
461.1601998,6042132.234642079
459.9649909,6041253.329370444
458.7790727,6041181.078612545
457.6023374,6041431.8589163115
456.4346788,6041767.380095272
455.2759921,6041731.695826769
454.12617439999997,6041405.7298965035
452.9851239,6041456.759180876
451.85274060000006,6038848.234465282
450.7289258,6028709.121258683
449.6135822,6008704.004239952
448.5066141,5977142.276618698
447.407927,5929735.479929639
446.317428,5864342.813831389
445.23502520000005,5778039.796338616
444.1606283,5670258.274154151
443.0941482,5543239.056273866
442.03549699999996,5401135.085088575
440.9845882,5250649.042868923
439.9413364,5093317.2546765385
438.9056575,4932878.236370026
437.87746860000004,4772314.914856076
436.85668780000003,4614889.46752042
435.8432345,4462263.065324052
434.83702930000004,4314612.2316477215
433.83799369999997,4170630.8627921636
432.84605039999997,4029463.200130532
431.8611232,3891682.3608508767
430.8831369,3756561.750574432
429.9120175,3625214.3138382616
428.94769169999995,3497122.4407782806
427.9900874,3373318.6830985406
427.03913370000004,3253914.0390236313
426.0947602,3139086.8812388415
425.1568978,3029171.998017417
424.22547829999996,2924080.3325571283
423.3004343,2824316.4761902583
422.3816994,2728540.651001757
421.4692081,2637590.446656725
420.56289569999996,2550789.727611136
419.66269850000003,2466714.366937528
418.7685535,2385927.302779849
417.8803987,2307078.9995733737
416.9981727,2230079.3710822714
416.12181519999996,2154251.947064533
415.25126639999996,2078870.7455632759
414.38646760000006,2004365.1556743244
413.5273605,1930309.9141056591
412.673888,1857357.295024329
411.8259934,1785444.189703907
410.9836208,1715086.9196288772
410.14671519999996,1646804.2982953263
409.3152221,1580821.326312386
408.48908789999996,1517222.3870660863
407.66825960000006,1456297.3225303285
406.8526847,1397785.1000293973
406.0423117,1341903.9417027715
405.2370896,1287850.577553634
404.43696800000004,1235568.999569748
403.64189730000004,1184424.07587012
402.8518283,1134443.3592145154
402.0667126,1084857.2784295576
401.28650239999996,1035631.6850007569
400.5111505,986417.515237256
399.7406101,936625.3673935477
398.9748353,886365.5075513703
398.2137806,835332.6033786391
397.457401,783632.4959062819
396.7056521,731381.2455869066
395.9584903,678908.6926767848
395.2158722,626523.017605245
394.4777551,574809.5432369887
393.7440968,524323.3443346914
393.0148555,476046.9028474475
392.2899901,430165.1786622838
391.56946,387349.43738075404
390.853225,348016.77904126985
390.1412452,312470.4460317432
389.43348169999996,280663.88568784954
388.7298955,252714.78895699038
388.03044839999995,228248.5644139096
387.3351027,206999.7566706879
386.6438209,188798.35673586914
385.95656610000003,173258.41160961724
385.2733019,159929.8500847829
384.5939922,148568.15564300062
383.9186014,138743.3261132398
383.2470943,130247.86748139256
382.5794362,122719.44379504336
381.9155926,116001.74221453562
381.2555296,109903.13172141805
380.59921360000004,104295.72229978463
379.9466115,99080.46085722918
379.29769039999996,94194.05856589843
378.652418,89578.1198730209
378.0107622,85266.13181104005
377.37269130000004,81199.17817625016
376.73817410000004,77370.64573396233
376.1071796,73750.67095346507
375.47967719999997,70344.11844170572
374.8556368,67106.93962101173
374.2350283,64043.96486885674
373.6178223,61145.17702135632
373.0039896,58340.3586233892
372.3935012,55637.686428874855
371.78632860000005,52996.37066455125
371.1824436,50481.936738596516
370.5818182,48039.51035514486
369.98442489999996,45672.2324476651
369.39023629999997,43398.5717988292
368.7992255,41199.383758502
368.2113658,39113.450049006584
367.6266307,37091.662174394914
367.0449943,35176.657835372374
366.4664305,33344.41972878656
365.89091410000003,31596.710807102016
365.3184196,29927.21150294213
364.7489221,28325.70795561439
364.18239689999996,26813.16312557623
363.61881960000005,25362.593810405644
363.058166,23996.07272035109
362.50041219999997,22658.718405197465
361.94553460000003,21403.41260348436
361.3935098,20194.44591224064
360.8443147,19051.548817907995
360.29792630000003,17964.49073832979
359.754322,16939.142836509956
359.2134795,15982.682082934505
358.6753765,15061.843382048935
358.1399912,14205.295215636408
357.6073018,13400.437043394391
357.077287,12633.28167245036
356.5499253,11913.991457133629
356.025196,11238.459460833508
355.50307799999996,10591.659811914766
354.983551,9977.334593009818
354.4665945,9396.005243904006
353.95218839999995,8844.475221017616
353.4403127,8325.681413362878
352.9309478,7813.661570699148
352.42407410000004,7340.662769750462
351.9196722,6884.648869881242
351.4177232,6447.617157031823
350.91820789999997,6032.384589079005
350.4211078,5632.833490780491
349.9264043,5251.974343057478
349.434079,4893.773758327926
348.9441137,4550.063908784578
348.45649060000005,4225.045330352895
347.97119169999996,3915.821796884558
347.48819960000003,3618.072639860492
347.0074967,3334.604621623056
346.5290657,3064.202172814548
346.0528897,2816.644025895755
345.5789517,2580.290371757861
345.1072349,2347.3723408531823
344.6377228,2135.0748931384915
344.17039889999995,1931.155754783797
343.70524710000007,1737.3363255692764
343.24225110000003,1553.3550237193765
342.7813952,1378.0670237418876
342.32266339999995,1217.2199066083006
341.8660403,1067.8368740951782
341.4115102,916.0952881560384
340.959058,783.0058160343468
340.5086685,656.2245683715847
340.06032660000005,538.5985032885774
339.6140175,434.6895569217862
339.1697264,342.46400755762863
338.7274388,260.18405729804766
338.28714019999995,194.4327860664197
337.8488164,139.44631247955013
337.41245310000005,94.10524609349274
336.9780363,56.64202076822976
336.5455522,37.927781710697225
336.114987,18.891667524224165
335.686327,7.820980778765642
335.2595588,2.666647886866917
334.834669,4.460503459637217
334.4116443,-0.5776020538773642
333.9904716,-0.7572376585387985
333.57113799999996,-2.198620404520489
333.1536305,-1.8511782053174977
332.73793639999997,-0.4098487094267056
332.32404310000004,-1.419141799960132
331.91193799999996,2.139336668841183
331.5016088,2.7720419535004472
331.0930432,6.195238903194613
330.6862289,1.689567301254156
330.281154,-2.5606502651048157
329.8778065,-1.9588631986176637
329.47617460000004,-2.5387297070519503
329.07624649999997,1.602314516994901
328.6780106,-2.380614585182796
328.2814555,-1.0989413885510984
327.88656960000003,4.555665354164828
327.4933418,0.01638820375114664
327.1017607,2.170088104469713
326.7118154,-4.3324371879124435
326.32349480000005,6.974404303923397
325.93678789999996,-1.0267077467547332
325.5516841,1.658923344887285
325.16817260000005,0.23664020460253424
324.7862428,2.9377259110277145
324.40588419999995,1.2402111347844085
324.0270864,-1.1525170184129176
323.649839,-2.9153007636816435
323.2741319,1.1516300474821304
322.8999548,-2.9381836436106363
322.5272977,-6.4201482356196555
322.1561508,2.460689816009733
321.786504,1.1764798704955588
321.4183476,-1.523946226008973
321.0516719,4.488656197088597
320.6864673,-0.9236445879936876
320.3227243,-3.572077070907497
319.96043330000003,4.170512073945353
319.5995851,-0.2028964012547744
319.2401704,2.089437526589266
318.8821799,0.9717825468212576
318.5256045,-2.2239666233795563
318.1704352,0.15135092020603566
317.8166631,0.5202803626486658
317.4642791,-0.16023437867504212
317.1132746,1.4147572952451888
316.76364069999994,-0.7143459241721133
316.4153688,-0.3173214574953556
316.06845039999996,-2.79609503853185
315.72287689999996,1.6823429249321402
315.37863980000003,-3.4393342055521168
315.0357308,0.9131177897295079
314.6941415,-0.28999248057344024
314.3538639,3.2731093804435814
314.0148896,2.7580831926194054
313.6772106,1.0513504841390298
313.3408189,-0.058013490469415716
313.00570639999995,1.2216475164229132
312.67186549999997,-0.5535176802019429
312.33928810000003,-0.9406792250175108
312.0079665,0.024691130306513088
311.6778931,-2.4542820382427015
311.34906010000003,3.0122650496427843
311.0214601,-5.132840288133967
310.6950856,3.7538005797685643
310.369929,5.809841885851256
310.04598300000004,-2.6348697935001018
309.7232403,-3.0724102029336398
309.4016935,-4.275382920139377
309.0813356,1.5078371538784785
308.7621594,2.9470488796159557
308.4441577,-2.4471312036656743
308.1273236,-2.8437613808048634
307.8116501,-5.273380153050897
307.49713019999996,-7.696491822522179
307.18375710000004,2.552812787160192
306.871524,-1.352916265518486
306.5604242,4.679303132752511
306.2504509,0.938556780000012
