wave,flux
1817.164934,0.9218065756737784
1790.1022050000001,13.263665905354266
1763.812741,-9.040592837034758
1738.2646949999998,17.54149658809054
1713.427949,154.61933449043704
1689.273995,995.1579061560576
1665.7758310000002,2828.2517712912236
1642.907862,5698.835435208132
1620.64581,9708.958380312964
1598.9666300000001,14952.357697524749
1577.8484310000001,21464.534219999467
1557.270407,29276.340515741816
1537.212767,38396.6201968145
1517.65668,47626.00651312497
1498.5842089999999,56702.78193030621
1479.978265,65460.55497691398
1461.822555,73737.97309494986
1444.101535,81636.83260718937
1426.800368,88824.46759598384
1409.904887,95351.98299560627
1393.401553,101285.75923673023
1377.2774220000001,106818.63377265057
1361.520115,112357.0520461489
1346.117782,117891.48625860905
1331.059081,123359.06259859342
1316.3331449999998,128785.85849853962
1301.92956,134215.33156935713
1287.838342,139591.44730265162
1274.049912,144913.1721887365
1260.5550779999999,150336.75676663118
1247.345017,155662.7438641133
1234.4112519999999,160906.55684664386
1221.74564,166235.11217413642
1209.340352,171309.46513871028
1197.187859,176483.0101503541
1185.28092,181634.21556005487
1173.612564,186842.25538232585
1162.1760800000002,191849.67982660106
1150.9650060000001,197055.98111336923
1139.973115,202177.29196714575
1129.194406,207114.39475579423
1118.623093,212108.04884472128
1108.253594,217133.46722067532
1098.0805269999998,222077.982785852
1088.098695,227002.4502493591
1078.303081,232216.8833042859
1068.688841,237610.67581187238
1059.251295,243082.9240551101
1049.9859199999999,249597.76838118394
1040.8883449999998,256496.8312642513
1031.9543429999999,264662.42675357714
1023.1798259999999,274277.1267096555
1014.5608390000001,285131.49182441697
1006.0935529999999,297622.39254777104
997.774265,310937.3085724169
989.5993858999999,325896.78820021986
981.5654412999999,341638.5810756044
973.6690651,357446.90067667235
965.9069952,373499.96136591735
958.2760697000001,389103.04953086935
950.7732231000001,404134.6457649996
943.3954827,418289.6908079539
936.1399648,431759.9541423662
929.0038716,443376.3643576647
921.9844879000001,453754.64448194095
915.0791782,463340.9107571716
908.2853836000002,472606.85205582133
901.6006193,480968.5348342274
895.0224714,490805.1236295545
888.548595,500980.01395175076
882.1767113,513274.07795663615
875.9046055,527368.5410852982
869.7301242999998,545387.9387361436
863.6511742999999,567260.9586355956
857.6657193,592133.2642135825
851.7717787,623950.3963934098
845.9674256000001,661591.667942974
840.2507849,707676.3826946295
834.6200316000001,762729.3659060013
829.0733892000001,827051.0675257748
823.6091279,899003.8091462739
818.2255633999999,983328.8271028964
812.9210552000001,1074933.603284337
807.694005,1172608.4062206494
802.5428559,1274515.2225090505
797.4660904,1383876.2691465828
792.4622299,1492122.2491734368
787.5298327,1610469.6236731603
782.6674933999999,1740877.8441104481
777.8738417999999,1892218.0136173118
773.1475413,2073665.6950054846
768.4872882999999,2301569.986137793
763.8918112000001,2578669.5565026924
759.3598692,2905326.7094665924
754.8902515999999,3273107.233930415
750.4817767999999,3668852.784017302
746.1332914,4077460.917281495
741.8436694000001,4492336.693508865
737.6118116,4880784.8209215375
733.4366444,5211729.184422272
729.3171195,5484503.587070287
725.2522127999999,5691109.540960161
721.2409241,5846570.205950322
717.282276,5947031.0079555325
713.3753136,6007793.843447368
709.5191037000001,6035271.571306006
705.7127343,6042964.81133105
701.9553139,6043766.185330393
698.2459709,6044309.774729714
694.5838534,6037757.189542489
690.9681281000001,6039306.634608604
687.3979803,6041894.626723326
683.8726131,6041484.0410648715
680.3912472999999,6042080.540135704
676.9531202000001,6041841.506556951
673.557486,6040600.091778521
670.2036149,6042900.28815408
666.8907926,6042701.718965587
663.6183202999999,6042017.7719943635
660.3855139,6040768.607089734
657.1917038,6042002.4037672635
654.0362346,6043020.182143928
650.9184646000001,6040401.790918894
647.8377654,6042520.491352242
644.7935217999999,6040620.860868271
641.7851312999999,6040498.011548475
638.8120038,6040534.2500274535
635.8735614,6041143.155000799
632.9692378999999,6041889.819249682
630.0984786,6041672.895694009
627.2607402000001,6041502.236943677
624.4554901,6041376.575908942
621.6822068,6041729.077259848
618.940379,6042026.359552055
616.2295054,6041301.021980586
613.549095,6041292.897993925
610.8986664,6041468.661718765
608.2777476,6041393.76839754
605.6858758999999,6041503.628554245
603.1225977000001,6041256.785321877
600.5874682,6041570.154535373
598.0800512,6041559.988818263
595.5999188999999,6041927.950083433
593.1466518,6041502.104414902
590.7198384999999,6040896.01202848
588.3190752,6041661.838125967
585.943966,6041192.3984904215
583.5941226,6041178.135460287
581.2691637,6041167.611267728
578.9687155,6041097.581850743
576.692411,6041376.282822236
574.4398902,6040891.0010894835
572.2107997,6041397.789493838
570.0047927,6041312.631555682
567.8215287,6041352.574710947
565.6606737000001,6041738.774744315
563.5218996,6041338.562201024
561.4048845,6041835.896225022
559.3093121,6041518.990761382
557.2348721,6041271.986886829
555.1812597,6041400.733260036
553.1481756000001,6041726.4524243325
551.1353259,6041304.580133688
549.1424218999999,6041636.563355942
547.1691801,6041705.270844027
545.2153222000001,6041556.153037583
543.2805745000001,6041819.158074617
541.3646685,6041195.552338936
539.46734,6041583.756229958
537.5883299,6041160.2691580225
535.7273833,6041221.849735327
533.8842498,6041095.075549701
532.0586836,6041460.194603782
530.2504428000001,6041187.5191263575
528.45929,6041711.968201707
526.6849915,6041434.733384094
524.927318,6041553.456784317
523.186044,6041542.858866098
521.4609475999999,6041556.359289931
519.7518110000001,6041043.878858702
518.0584200000001,6041609.367401529
516.3805639,6041652.844125278
514.7180356,6041851.672220622
513.0706316000001,6041362.010221615
511.43815149999995,6041497.553143539
509.82039860000003,6041523.666879059
508.2171791999999,6040898.962303706
506.628303,6041324.259553133
505.05358269999994,6041620.857158612
503.4928341,6041269.474014277
501.9458762,6041601.52260075
500.41253059999997,6041364.5137589285
498.8926222,6041188.494662438
497.3859785,6041756.122383575
495.89242989999997,6041633.925241828
494.4118094,6041239.3790907925
492.943953,6041693.870523728
491.488699,6041019.4742448265
490.04588839999997,6041352.938399084
488.6153648,6041265.137883094
487.19697429999997,6041303.158367341
485.7905654,6041676.969213469
484.39598889999996,6041528.613944992
483.01309800000007,6041652.685562074
481.64174840000004,6040944.165199473
480.28179789999996,6041467.337552579
478.93310639999993,6041268.14494089
477.59553619999997,6041505.281136845
476.2689517,6041280.902292508
474.9532192,6041711.510720802
473.6482074,6041906.698243401
472.35378679999997,6041544.419230985
471.06982989999995,6039805.814109498
469.79621110000005,6029719.367450275
468.53280700000005,6007160.886327454
467.2794956999999,5967238.789081784
466.0361575,5907110.165992443
464.80267410000005,5823540.483818831
463.5789295,5712121.8216926865
462.364809,5573104.47737516
461.1601998,5405893.870972244
459.9649909,5220814.777611052
458.7790727,5025910.7028648285
457.6023374,4826974.282966247
456.4346788,4628774.915299571
455.2759921,4437528.807307908
454.12617439999997,4255329.33869397
452.9851239,4086756.305012186
451.85274060000006,3931858.600875553
450.7289258,3788570.554221042
449.6135822,3654318.564724114
448.5066141,3528601.6467766464
447.407927,3409937.671512586
446.317428,3298087.86031067
445.23502520000005,3193591.3028471186
444.1606283,3096626.1408196175
443.0941482,3007965.492671526
442.03549699999996,2927346.6415958563
440.9845882,2854676.408822316
439.9413364,2789909.7571759126
438.9056575,2731605.506699574
437.87746860000004,2678508.477111555
436.85668780000003,2627708.382104618
435.8432345,2577293.042331521
434.83702930000004,2524839.013545414
433.83799369999997,2468112.78101469
432.84605039999997,2406256.8914574995
431.8611232,2338478.0415751114
430.8831369,2265447.1998319225
429.9120175,2187332.4580752985
428.94769169999995,2106007.6943963
427.9900874,2023090.4963525082
427.03913370000004,1940376.6383212025
426.0947602,1859271.5569061062
425.1568978,1781620.9229162743
424.22547829999996,1708323.6522625491
423.3004343,1639856.3221756734
422.3816994,1576494.656200254
421.4692081,1518750.6382993697
420.56289569999996,1465968.907354591
419.66269850000003,1417124.007554087
418.7685535,1371915.5614109193
417.8803987,1329270.778586347
416.9981727,1288173.0577621479
416.12181519999996,1247856.809865283
415.25126639999996,1207138.0216375813
414.38646760000006,1165877.6052476424
413.5273605,1123328.676163463
412.673888,1079489.5088205605
411.8259934,1034362.1453384631
410.9836208,988652.5971644048
410.14671519999996,942566.239935176
409.3152221,896697.6195898232
408.48908789999996,851625.2373580184
407.66825960000006,807790.732164929
406.8526847,765507.7090271821
406.0423117,725606.6752738509
405.2370896,688003.7121230076
404.43696800000004,652869.3561070107
403.64189730000004,620128.6238080387
402.8518283,589990.4329199758
402.0667126,562036.0150487835
401.28650239999996,535925.9253437971
400.5111505,511650.6797580181
399.7406101,488078.02196253213
398.9748353,465146.8815985126
398.2137806,442364.14889012155
397.457401,419513.89492944116
396.7056521,396419.68316018453
395.9584903,373067.80194740696
395.2158722,349523.8032214595
394.4777551,325681.1226659044
393.7440968,303075.5104471007
393.0148555,281693.34191847
392.2899901,261511.40532579087
391.56946,242937.5001834473
390.853225,225928.99116688975
390.1412452,210436.06759111414
389.43348169999996,196422.98120611228
388.7298955,183793.63667096835
388.03044839999995,171777.32859639314
387.3351027,160411.67544948767
386.6438209,149706.1446722675
385.95656610000003,139535.0182864068
385.2733019,129833.46675917837
384.5939922,120625.6444102106
383.9186014,111927.06093606305
383.2470943,103757.34435978203
382.5794362,96042.91910891533
381.9155926,88865.49971174811
381.2555296,82152.37176060754
380.59921360000004,75869.30206494276
379.9466115,70028.98260256476
379.29769039999996,64593.950094927575
378.652418,59600.823120645575
378.0107622,55060.03884247682
377.37269130000004,50960.44627305037
376.73817410000004,47297.800731969735
376.1071796,44005.95000044503
375.47967719999997,41059.76185937402
374.8556368,38443.4893471521
374.2350283,36099.563312600665
373.6178223,34014.21621426337
373.0039896,32103.22741851581
372.3935012,30341.085914702257
371.78632860000005,28707.518329408187
371.1824436,27187.69885254644
370.5818182,25766.35417633613
369.98442489999996,24434.85937636735
369.39023629999997,23191.375419546068
368.7992255,22021.834477506094
368.2113658,20921.537333823977
367.6266307,19894.65613097123
367.0449943,18923.675626182878
366.4664305,18023.568662583148
365.89091410000003,17175.911580281892
365.3184196,16359.671196481167
364.7489221,15591.04871438266
364.18239689999996,14862.821097268037
363.61881960000005,14153.966639936543
363.058166,13469.446661301356
362.50041219999997,12790.74375057692
361.94553460000003,12133.283137771195
361.3935098,11474.511636321688
360.8443147,10840.70114697662
360.29792630000003,10221.075269971774
359.754322,9625.766339950997
359.2134795,9077.038085766944
358.6753765,8542.714419987109
358.1399912,8049.621048379237
357.6073018,7583.181753757671
357.077287,7154.5492493419
356.5499253,6743.106579235636
356.025196,6365.950237962356
355.50307799999996,6004.196493432798
354.983551,5659.676015055255
354.4665945,5334.126364354343
353.95218839999995,5023.4656011562565
353.4403127,4720.274033126886
352.9309478,4439.519915103993
352.42407410000004,4168.817416339934
351.9196722,3911.0091602897705
351.4177232,3658.3472124700897
350.91820789999997,3415.079610913411
350.4211078,3180.100934824941
349.9264043,2962.997609137574
349.434079,2748.060559957878
348.9441137,2548.5214412727873
348.45649060000005,2354.771730333544
347.97119169999996,2177.5452511531867
347.48819960000003,2012.8330495139785
347.0074967,1852.454352246956
346.5290657,1707.8621423437162
346.0528897,1573.5130032052232
345.5789517,1456.0873086423526
345.1072349,1348.6370520275416
344.6377228,1246.9394887724004
344.17039889999995,1154.3606054168126
343.70524710000007,1069.139144711968
343.24225110000003,992.8376156821344
342.7813952,917.1101535873829
342.32266339999995,843.0067631637706
341.8660403,775.913390768369
341.4115102,705.2745551612136
340.959058,642.5578740659549
340.5086685,584.3182220583483
340.06032660000005,525.3761766864699
339.6140175,475.31535484768204
339.1697264,430.5395882128089
338.7274388,391.1633113508477
338.28714019999995,348.76588695051385
337.8488164,310.778211797822
337.41245310000005,280.43276609152707
336.9780363,251.1494485789396
336.5455522,219.8508137455824
336.114987,199.2955095242411
335.686327,170.42475979378474
335.2595588,147.2636785866849
334.834669,131.96503226508193
334.4116443,110.19672150541635
333.9904716,90.78775018216999
333.57113799999996,78.94561034719572
333.1536305,61.93506663320319
332.73793639999997,55.546948347451476
332.32404310000004,42.92875727150327
331.91193799999996,34.13205328949
331.5016088,23.384110183960036
331.0930432,18.511911544877485
330.6862289,14.230495236110967
330.281154,6.750138358991934
329.8778065,10.989252358650074
329.47617460000004,3.1063682703510773
329.07624649999997,1.752181710811308
328.6780106,5.815760515494287
328.2814555,-0.26720728135783545
327.88656960000003,-1.121558368224238
327.4933418,2.9544719785182947
327.1017607,-2.8601182315821525
326.7118154,-0.6373728113719018
326.32349480000005,-4.686968102078938
325.93678789999996,-0.8429629335331461
325.5516841,-1.8958085451206943
325.16817260000005,-0.6400583875674679
324.7862428,6.398502436209606
324.40588419999995,-5.2345834801862186
324.0270864,-2.3597749535188317
323.649839,-3.4472973381695624
323.2741319,-4.210617944378046
322.8999548,-0.7108302863632341
322.5272977,-3.3467463005365223
322.1561508,0.27447628194985857
321.786504,3.676694318854423
321.4183476,3.14815888588838
321.0516719,-0.8994232729344341
320.6864673,1.1836665154118526
320.3227243,-0.2531258460568581
319.96043330000003,0.4801599106081292
319.5995851,2.9485294774985307
319.2401704,-1.5372512798542812
318.8821799,-1.1026466145340843
318.5256045,-1.1169829887991205
318.1704352,0.4948649061468153
317.8166631,-2.361228680551204
317.4642791,-0.8719671179525944
317.1132746,-2.0626282719328817
316.76364069999994,2.7477569360163936
316.4153688,1.8979589715806904
316.06845039999996,0.6925315353984229
315.72287689999996,0.22844595312398644
315.37863980000003,-1.9836839349878024
315.0357308,-3.1399045258908127
314.6941415,-2.8024466346084855
314.3538639,-3.4081783692381777
314.0148896,0.2145974687319827
313.6772106,-0.1626714817106096
313.3408189,2.177570765246825
313.00570639999995,0.5380442995553721
312.67186549999997,3.4705678187161664
312.33928810000003,-0.8547890602568403
312.0079665,2.1867225609456318
311.6778931,1.249224949908693
311.34906010000003,-0.08443224865217819
311.0214601,-4.537878131083983
310.6950856,-5.402311685740861
310.369929,-0.3327324518971216
310.04598300000004,-0.3899917979055412
309.7232403,-1.5272984909060263
309.4016935,-2.2258241099896847
309.0813356,-0.5837595165471786
308.7621594,-0.4064949390230949
308.4441577,1.3711689861666507
308.1273236,3.164142562042223
307.8116501,2.0086950989461614
307.49713019999996,2.790147142072528
307.18375710000004,-0.5503331250259763
306.871524,-1.286692016204931
306.5604242,-3.4880800459763006
306.2504509,1.4613739767288982
