wave,flux
1817.164934,66.61441882677333
1790.1022050000001,4.400147327866838
1763.812741,94.47397926202969
1738.2646949999998,-58.83286274812984
1713.427949,-43.35779158702782
1689.273995,3821.7192352230104
1665.7758310000002,12932.137170411308
1642.907862,27031.42575682137
1620.64581,46320.272039976815
1598.9666300000001,70425.72646975567
1577.8484310000001,99654.04727882906
1557.270407,133704.01126807046
1537.212767,172792.40961193902
1517.65668,209701.63028624078
1498.5842089999999,242280.00000960997
1479.978265,270544.4777502826
1461.822555,294410.41872000165
1444.101535,314221.3401128241
1426.800368,329227.053580277
1409.904887,340543.2539708205
1393.401553,347729.5157469809
1377.2774220000001,353303.3194212357
1361.520115,359051.4417472378
1346.117782,364869.968402721
1331.059081,370696.40457751276
1316.3331449999998,376112.34563829255
1301.92956,381506.7522558785
1287.838342,387084.3754925373
1274.049912,392483.08763352036
1260.5550779999999,397596.37203482323
1247.345017,402704.06757925346
1234.4112519999999,408502.48816448415
1221.74564,413458.11643044365
1209.340352,418783.8450072544
1197.187859,424551.92194056883
1185.28092,430546.0756070035
1173.612564,435867.7910148253
1162.1760800000002,442159.1734705903
1150.9650060000001,448342.44814219186
1139.973115,454336.46016962815
1129.194406,460002.5809248628
1118.623093,466154.3415768193
1108.253594,471817.48204612563
1098.0805269999998,477766.863958064
1088.098695,484289.5003829845
1078.303081,490987.71627321903
1068.688841,499776.4208948303
1059.251295,510094.35076867905
1049.9859199999999,524173.33872230357
1040.8883449999998,542124.3395024483
1031.9543429999999,566055.6565396603
1023.1798259999999,596308.117507349
1014.5608390000001,631353.0146487947
1006.0935529999999,671357.8560142196
997.774265,717009.4098858382
989.5993858999999,765001.9386291937
981.5654412999999,814549.924497304
973.6690651,862672.6215438752
965.9069952,908129.2309782018
958.2760697000001,948894.9043631428
950.7732231000001,983894.9749697415
943.3954827,1012619.8304578479
936.1399648,1033509.09540392
929.0038716,1047811.319044511
921.9844879000001,1056087.8884317176
915.0791782,1060007.1731225832
908.2853836000002,1060057.851237121
901.6006193,1062314.5119729904
895.0224714,1063944.864560579
888.548595,1075686.7403876802
882.1767113,1094477.8042077643
875.9046055,1127995.9733978156
869.7301242999998,1174037.6790627646
863.6511742999999,1240806.9084347878
857.6657193,1324540.0506595792
851.7717787,1434054.457787608
845.9674256000001,1574058.1281499194
840.2507849,1744261.1236572259
834.6200316000001,1954118.8067410537
829.0733892000001,2200864.967872613
823.6091279,2478590.9399827905
818.2255633999999,2795495.174798241
812.9210552000001,3127735.0158365336
807.694005,3475091.0549516208
802.5428559,3825139.8196593085
797.4660904,4166597.3340851455
792.4622299,4489634.405502941
787.5298327,4786124.432658152
782.6674933999999,5044687.543117121
777.8738417999999,5267348.4020411065
773.1475413,5453571.869144648
768.4872882999999,5610718.350559603
763.8918112000001,5743788.581709388
759.3598692,5836360.051668755
754.8902515999999,5910216.7943914365
750.4817767999999,5958214.236277628
746.1332914,5994524.035986522
741.8436694000001,6021154.145851603
737.6118116,6034698.923716148
733.4366444,6041495.483119043
729.3171195,6040072.82920207
725.2522127999999,6040230.183760635
721.2409241,6040680.869084521
717.282276,6042778.893540894
713.3753136,6039550.487900474
709.5191037000001,6040357.354148984
705.7127343,6040727.56131754
701.9553139,6040724.673965364
698.2459709,6038843.304204111
694.5838534,6041168.28472923
690.9681281000001,6039023.426915798
687.3979803,6040617.199077915
683.8726131,6042276.346685672
680.3912472999999,6039966.941526743
676.9531202000001,6043133.291623848
673.557486,6041646.703756753
670.2036149,6040567.666993159
666.8907926,6041550.765882137
663.6183202999999,6041962.742405198
660.3855139,6039119.33945418
657.1917038,6042333.62963689
654.0362346,6043737.9189410135
650.9184646000001,6041480.542342349
647.8377654,6039991.872277105
644.7935217999999,6038449.96474659
641.7851312999999,6039932.1872564675
638.8120038,6040115.266533483
635.8735614,6042293.487085862
632.9692378999999,6041883.795926222
630.0984786,6038793.211859151
627.2607402000001,6040843.0382060185
624.4554901,6040409.824273798
621.6822068,6040649.286949728
618.940379,6041209.029853485
616.2295054,6041073.186090416
613.549095,6041175.038191496
610.8986664,6041142.0693575125
608.2777476,6041396.499297776
605.6858758999999,6041584.83073794
603.1225977000001,6041767.737751772
600.5874682,6041502.46424543
598.0800512,6041634.183817106
595.5999188999999,6041231.375764384
593.1466518,6041794.320657076
590.7198384999999,6041490.8484033365
588.3190752,6041459.7710387185
585.943966,6041404.67406681
583.5941226,6041113.1260691825
581.2691637,6041121.79651522
578.9687155,6040900.37160037
576.692411,6041504.300360518
574.4398902,6041395.6333459085
572.2107997,6041486.469734027
570.0047927,6041277.615342001
567.8215287,6041642.145769649
565.6606737000001,6041550.221121048
563.5218996,6040923.387016501
561.4048845,6041280.492010105
559.3093121,6041423.312375018
557.2348721,6041462.318845786
555.1812597,6041619.128949226
553.1481756000001,6041454.971511322
551.1353259,6041346.520386487
549.1424218999999,6041452.260809266
547.1691801,6041497.009478979
545.2153222000001,6041458.8210815815
543.2805745000001,6041501.34607487
541.3646685,6041163.058025862
539.46734,6041072.869892259
537.5883299,6041094.7230685875
535.7273833,6041072.294214448
533.8842498,6040948.776026878
532.0586836,6041216.671457354
530.2504428000001,6041513.977913704
528.45929,6041173.162269377
526.6849915,6041633.732955703
524.927318,6041266.23303744
523.186044,6041444.944337596
521.4609475999999,6041280.673970409
519.7518110000001,6041314.2540067965
518.0584200000001,6041447.306818198
516.3805639,6041275.923575833
514.7180356,6041956.346579327
513.0706316000001,6040979.986279401
511.43815149999995,6041468.748898419
509.82039860000003,6041560.328065998
508.2171791999999,6041260.015075253
506.628303,6041482.942255585
505.05358269999994,6041322.704016693
503.4928341,6041428.049988997
501.9458762,6040949.598079891
500.41253059999997,6041705.437934456
498.8926222,6040974.16691114
497.3859785,6041578.817557247
495.89242989999997,6041259.3466340285
494.4118094,6041400.7124435175
492.943953,6041827.265720123
491.488699,6041520.5426686825
490.04588839999997,6041130.343946325
488.6153648,6041248.175572663
487.19697429999997,6041303.889192417
485.7905654,6041287.194587057
484.39598889999996,6041219.148628074
483.01309800000007,6041071.914397231
481.64174840000004,6041115.119951815
480.28179789999996,6041209.122133422
478.93310639999993,6041795.234593765
477.59553619999997,6041815.568227201
476.2689517,6041382.183677185
474.9532192,6040892.83975981
473.6482074,6040922.751402007
472.35378679999997,6041563.396112935
471.06982989999995,6041435.067625037
469.79621110000005,6039905.504955052
468.53280700000005,6022174.349753006
467.2794956999999,5978746.457710084
466.0361575,5901488.195666004
464.80267410000005,5785546.69241203
463.5789295,5624144.99695744
462.364809,5414627.966952565
461.1601998,5153523.897741292
459.9649909,4842777.092741339
458.7790727,4507929.089780079
457.6023374,4166853.2956036576
456.4346788,3834696.023435318
455.2759921,3523704.397351886
454.12617439999997,3244720.551515005
452.9851239,3004762.1295151087
451.85274060000006,2812255.895916596
450.7289258,2668821.737851926
449.6135822,2567933.179538608
448.5066141,2503251.8986370354
447.407927,2470433.275886688
446.317428,2464988.473868259
445.23502520000005,2483391.8031806336
444.1606283,2523527.7218019073
443.0941482,2582510.0409754473
442.03549699999996,2657626.037831537
440.9845882,2744401.1366820075
439.9413364,2837982.4626586637
438.9056575,2932771.3600892387
437.87746860000004,3021847.812998008
436.85668780000003,3097613.534749425
435.8432345,3152894.3427010137
434.83702930000004,3181133.6980917268
433.83799369999997,3177127.9634575886
432.84605039999997,3138494.2200984363
431.8611232,3065868.225018402
430.8831369,2962506.78641607
429.9120175,2834340.4836506727
428.94769169999995,2688920.34356435
427.9900874,2534210.9347159723
427.03913370000004,2378289.064780139
426.0947602,2228612.9818229345
425.1568978,2090302.7476993192
424.22547829999996,1967212.0427098891
423.3004343,1861088.765890564
422.3816994,1771823.7270150632
421.4692081,1698812.4013286312
420.56289569999996,1640369.9977938745
419.66269850000003,1594508.8031760338
418.7685535,1559713.9433546825
417.8803987,1533242.8658608638
416.9981727,1513808.6218299915
416.12181519999996,1499872.431001743
415.25126639999996,1489677.7754368468
414.38646760000006,1482257.8221990957
413.5273605,1475587.821892673
412.673888,1467981.4854468475
411.8259934,1457855.4019538518
410.9836208,1443965.68509627
410.14671519999996,1424847.7352372315
409.3152221,1399176.3101058123
408.48908789999996,1367259.0190038602
407.66825960000006,1328896.7256723873
406.8526847,1285165.1704239836
406.0423117,1237521.3549591117
405.2370896,1188008.4162089394
404.43696800000004,1138642.097331375
403.64189730000004,1091558.3188226214
402.8518283,1048654.0003361024
402.0667126,1010837.992233326
401.28650239999996,978854.0824453428
400.5111505,952206.1055805555
399.7406101,928311.5021283865
398.9748353,905682.2305405504
398.2137806,882578.9812399589
397.457401,855481.2182953961
396.7056521,822715.892951201
395.9584903,782893.4805120236
395.2158722,735480.8457811287
394.4777551,680588.6881165549
393.7440968,621470.470143811
393.0148555,559226.7077010632
392.2899901,494887.3776485186
391.56946,432941.4605086445
390.853225,374645.939630514
390.1412452,321505.89043930307
389.43348169999996,274587.0019352734
388.7298955,234313.2856021431
388.03044839999995,199631.61005852267
387.3351027,170621.95155287266
386.6438209,147588.5469795016
385.95656610000003,128724.4345648806
385.2733019,113457.52830964164
384.5939922,101237.81899593127
383.9186014,91563.73476558381
383.2470943,83761.00621354817
382.5794362,77426.50333636104
381.9155926,72258.97069255018
381.2555296,67715.71105545392
380.59921360000004,63578.137151072166
379.9466115,59767.62676496862
379.29769039999996,56142.761342184276
378.652418,52702.43563366295
378.0107622,49633.14084858592
377.37269130000004,46881.54734056246
376.73817410000004,44431.32104494116
376.1071796,42291.185832358635
375.47967719999997,40426.405850071846
374.8556368,38793.175050663434
374.2350283,37406.27910336252
373.6178223,36223.23481447376
373.0039896,35087.37618017353
372.3935012,34015.356119426964
371.78632860000005,32992.982446826994
371.1824436,32000.827622267632
370.5818182,31043.64552641491
369.98442489999996,30088.217805619428
369.39023629999997,29155.785234105402
368.7992255,28222.09475706063
368.2113658,27292.625434105783
367.6266307,26357.073696504867
367.0449943,25424.637256657123
366.4664305,24509.268541825084
365.89091410000003,23591.283332494128
365.3184196,22689.415880419845
364.7489221,21800.480527969303
364.18239689999996,20889.768855365724
363.61881960000005,19958.04889684653
363.058166,19002.208152729574
362.50041219999997,18013.98788484385
361.94553460000003,17012.318609906208
361.3935098,15989.549276343672
360.8443147,14946.334438335438
360.29792630000003,13889.051363718057
359.754322,12922.843834073677
359.2134795,12028.550840836955
358.6753765,11233.337231190915
358.1399912,10514.63152293941
357.6073018,9901.949943234544
357.077287,9369.437408510372
356.5499253,8916.978280103905
356.025196,8541.187841692647
355.50307799999996,8187.1634512470955
354.983551,7848.982321438842
354.4665945,7520.696527263357
353.95218839999995,7209.9146277526615
353.4403127,6895.711423037074
352.9309478,6605.645657994653
352.42407410000004,6323.519874089955
351.9196722,6047.748042291571
351.4177232,5786.788132294864
350.91820789999997,5538.709889142529
350.4211078,5289.3827822661015
349.9264043,5029.658471779416
349.434079,4764.988479859197
348.9441137,4487.317636714648
348.45649060000005,4204.617410069059
347.97119169999996,3916.591849392621
347.48819960000003,3617.9604421118074
347.0074967,3315.7066560226367
346.5290657,3026.718608225357
346.0528897,2764.4416874559643
345.5789517,2525.426588053167
345.1072349,2315.648996142633
344.6377228,2130.721174689074
344.17039889999995,1977.392255166546
343.70524710000007,1848.5658386835605
343.24225110000003,1742.3471762987774
342.7813952,1647.9234928964008
342.32266339999995,1543.680946169289
341.8660403,1432.8033837895985
341.4115102,1317.477511988416
340.959058,1194.3976932714584
340.5086685,1055.5903678530135
340.06032660000005,901.4403442299604
339.6140175,746.9277259366958
339.1697264,590.639834277765
338.7274388,449.27678140093286
338.28714019999995,326.9710457296631
337.8488164,227.55673603420703
337.41245310000005,140.80989718526126
336.9780363,81.63786376268048
336.5455522,38.89998659095067
336.114987,21.768537099603186
335.686327,10.130757174184684
335.2595588,3.2058971071910487
334.834669,1.7503459294018118
334.4116443,1.9545533112471103
333.9904716,2.32740714131128
333.57113799999996,2.5286929038948625
333.1536305,6.880170494512327
332.73793639999997,1.0477680981484607
332.32404310000004,-0.06418827716355265
331.91193799999996,2.731864278417956
331.5016088,-0.5955116675217891
331.0930432,-2.7885753157121416
330.6862289,-1.840692116171984
330.281154,-2.0028691210596965
329.8778065,1.6427191281608042
329.47617460000004,2.110531746596949
329.07624649999997,-0.6982240293427852
328.6780106,-0.10426587222089076
328.2814555,-3.220887099620138
327.88656960000003,0.8971906041078388
327.4933418,0.1934136294868385
327.1017607,2.0164781209862093
326.7118154,-0.4248634610550554
326.32349480000005,0.9242793643240572
325.93678789999996,9.251029831269696
325.5516841,0.1036985117170298
325.16817260000005,-2.8473549722486364
324.7862428,-0.4658366315087806
324.40588419999995,-4.189814427732929
324.0270864,1.1563005935904969
323.649839,-2.6308753661847146
323.2741319,4.491324157429316
322.8999548,0.9227085588686068
322.5272977,-4.57030702814476
322.1561508,1.2507828112533792
321.786504,0.8860937235099382
321.4183476,1.9090909221308499
321.0516719,-0.17772160703172546
320.6864673,0.9422088957123069
320.3227243,-3.9392946338166768
319.96043330000003,1.4306237122289538
319.5995851,2.269429575241091
319.2401704,0.028342973935406742
318.8821799,-2.380079983632212
318.5256045,4.109516634838233
318.1704352,1.711434640284179
317.8166631,-0.2034409675775594
317.4642791,1.5667273023089805
317.1132746,1.563908871636463
316.76364069999994,4.797087357238919
316.4153688,3.4216135676676207
316.06845039999996,-0.44299765031901217
315.72287689999996,-1.837139802709482
315.37863980000003,-0.4444500556245287
315.0357308,3.179029917064032
314.6941415,-2.1407395411708454
314.3538639,-0.5277990238544421
314.0148896,0.14375048027999807
313.6772106,0.5561282171354771
313.3408189,-2.212563559150569
313.00570639999995,-2.262812794047021
312.67186549999997,0.22837888722431005
312.33928810000003,1.730961492963884
312.0079665,-0.1121238375935204
311.6778931,-3.136688378900033
311.34906010000003,-0.3317324876331825
311.0214601,-0.5454620994939027
310.6950856,-3.8448588009381695
310.369929,0.3085935914546422
310.04598300000004,0.3962298875271725
309.7232403,3.701154950533108
309.4016935,-0.5519454244517544
309.0813356,-5.883889496281762
308.7621594,3.359353159458049
308.4441577,-0.16937418897576548
308.1273236,0.440879452473443
307.8116501,0.15541598944633184
307.49713019999996,-3.6842560770744393
307.18375710000004,-0.08530429373552602
306.871524,1.0419295806161364
306.5604242,-1.5750017526980145
306.2504509,-0.7957063403534368
