wave,flux
1817.164934,16.02159591167446
1790.1022050000001,14.669334961833458
1763.812741,29.589846745250068
1738.2646949999998,116.9757050619572
1713.427949,332.21025424211837
1689.273995,1695.275765714531
1665.7758310000002,4699.845042540119
1642.907862,9368.355996290618
1620.64581,15868.385484804156
1598.9666300000001,24556.81216609481
1577.8484310000001,35371.26428223665
1557.270407,48333.34729367541
1537.212767,63572.11109734463
1517.65668,79346.340253934
1498.5842089999999,94991.23810064043
1479.978265,110347.56429679475
1461.822555,125120.14756745005
1444.101535,139062.98663350404
1426.800368,152112.84570425714
1409.904887,164168.09445454122
1393.401553,174997.7255773931
1377.2774220000001,185354.03787838106
1361.520115,195435.20166798288
1346.117782,205235.3529820196
1331.059081,214764.60761646507
1316.3331449999998,224371.79605508575
1301.92956,233623.3439652853
1287.838342,242733.81406800754
1274.049912,251914.37793653895
1260.5550779999999,261006.14365853343
1247.345017,269882.6702303714
1234.4112519999999,278454.6182269233
1221.74564,287324.67349116533
1209.340352,295285.3243015688
1197.187859,303748.1465581758
1185.28092,311906.2057021326
1173.612564,319965.90508146444
1162.1760800000002,327864.9812899779
1150.9650060000001,335779.6067288436
1139.973115,343742.6462255785
1129.194406,351464.98979282397
1118.623093,359347.8483239603
1108.253594,367428.8960223453
1098.0805269999998,375173.98370820115
1088.098695,383027.5135489225
1078.303081,390884.6163478897
1068.688841,399043.8803040762
1059.251295,408293.38171145966
1049.9859199999999,418468.2279057729
1040.8883449999998,429494.76885917474
1031.9543429999999,442717.7148357658
1023.1798259999999,457993.6719862851
1014.5608390000001,475664.24292139435
1006.0935529999999,495862.9578256002
997.774265,517738.417915331
989.5993858999999,541277.6061138189
981.5654412999999,566728.5849766036
973.6690651,592331.2048506556
965.9069952,617889.1715866395
958.2760697000001,643609.1857646221
950.7732231000001,667565.1397060965
943.3954827,690126.8330930229
936.1399648,710934.985049273
929.0038716,730325.679645112
921.9844879000001,747289.4216328919
915.0791782,763415.6284775914
908.2853836000002,777665.3478933681
901.6006193,791503.0749746156
895.0224714,807796.6233373686
888.548595,824025.7635112674
882.1767113,843693.3913668232
875.9046055,868820.2667642925
869.7301242999998,896586.4013212917
863.6511742999999,932448.3870727959
857.6657193,974252.7549463152
851.7717787,1027731.6440732331
845.9674256000001,1090120.6735521841
840.2507849,1167160.6910252254
834.6200316000001,1258372.7150699182
829.0733892000001,1364858.9961327538
823.6091279,1484465.1245615238
818.2255633999999,1618696.7961091278
812.9210552000001,1767646.1769851858
807.694005,1927710.95735187
802.5428559,2095329.4826173163
797.4660904,2270722.422995187
792.4622299,2454530.72850065
787.5298327,2655626.233156394
782.6674933999999,2879389.160261972
777.8738417999999,3133211.15421169
773.1475413,3414408.605312251
768.4872882999999,3712741.366826552
763.8918112000001,4035598.434367859
759.3598692,4373636.687350792
754.8902515999999,4709103.3408719255
750.4817767999999,5029094.493837342
746.1332914,5314793.675773423
741.8436694000001,5540805.351771458
737.6118116,5722561.133804829
733.4366444,5857405.677838175
729.3171195,5950778.8884040825
725.2522127999999,6008455.5960053075
721.2409241,6035992.896059554
717.282276,6040061.199110692
713.3753136,6039156.441705157
709.5191037000001,6040670.761287955
705.7127343,6037119.374963827
701.9553139,6043778.572078525
698.2459709,6039313.6699423175
694.5838534,6039443.587297982
690.9681281000001,6043576.379532322
687.3979803,6041163.358041597
683.8726131,6042836.218528065
680.3912472999999,6043256.99154736
676.9531202000001,6038939.150451552
673.557486,6040245.991856568
670.2036149,6041115.49178897
666.8907926,6039362.171345151
663.6183202999999,6043875.875524358
660.3855139,6043633.910698121
657.1917038,6039817.870959314
654.0362346,6041472.517688722
650.9184646000001,6041309.121876978
647.8377654,6041208.067360635
644.7935217999999,6043305.4240654325
641.7851312999999,6041457.2572267335
638.8120038,6040957.7051923815
635.8735614,6042124.485794056
632.9692378999999,6040905.566789439
630.0984786,6042648.093604454
627.2607402000001,6041833.6031529475
624.4554901,6041167.255800848
621.6822068,6041450.200695449
618.940379,6042514.672593745
616.2295054,6041526.096508873
613.549095,6042014.894014016
610.8986664,6040808.75453825
608.2777476,6041625.628681397
605.6858758999999,6041297.69201123
603.1225977000001,6041756.279176673
600.5874682,6041642.947007787
598.0800512,6040981.341732052
595.5999188999999,6041397.334834143
593.1466518,6041132.818121373
590.7198384999999,6041468.527558021
588.3190752,6041215.709097592
585.943966,6041602.3932814
583.5941226,6041446.261914488
581.2691637,6041397.883407746
578.9687155,6041444.503506052
576.692411,6041213.02417169
574.4398902,6041104.528421637
572.2107997,6041330.789873892
570.0047927,6041788.153655025
567.8215287,6041689.511634635
565.6606737000001,6040914.729013378
563.5218996,6041534.874960277
561.4048845,6041478.980393388
559.3093121,6042216.952794859
557.2348721,6041045.003219795
555.1812597,6041111.637023827
553.1481756000001,6041090.7635686435
551.1353259,6041402.824893948
549.1424218999999,6040879.518012908
547.1691801,6041354.465456416
545.2153222000001,6041596.516308517
543.2805745000001,6041604.9609150775
541.3646685,6041307.611029902
539.46734,6041746.160054632
537.5883299,6041115.149873482
535.7273833,6041592.286626596
533.8842498,6041480.220534471
532.0586836,6041264.8137156535
530.2504428000001,6041769.127113901
528.45929,6041256.306877634
526.6849915,6041534.038045794
524.927318,6041807.7019035015
523.186044,6041256.687804338
521.4609475999999,6041754.354826034
519.7518110000001,6041339.003105824
518.0584200000001,6041684.695350372
516.3805639,6041347.304631159
514.7180356,6041452.532272543
513.0706316000001,6041231.85591957
511.43815149999995,6041720.812222501
509.82039860000003,6041319.978118906
508.2171791999999,6041176.922469048
506.628303,6041314.331256975
505.05358269999994,6041372.757755049
503.4928341,6041200.913625455
501.9458762,6041562.851752571
500.41253059999997,6038786.739915705
498.8926222,6022761.214472363
497.3859785,5983657.3562584575
495.89242989999997,5912726.9643704975
494.4118094,5803111.809296902
492.943953,5650228.290715522
491.488699,5449629.754993695
490.04588839999997,5197182.814786783
488.6153648,4895917.400903025
487.19697429999997,4564145.260553214
485.7905654,4219528.814911028
484.39598889999996,3876262.3553338633
483.01309800000007,3546878.35487865
481.64174840000004,3240332.8498941413
480.28179789999996,2964221.370472638
478.93310639999993,2725858.2969632633
477.59553619999997,2527703.4972352884
476.2689517,2362735.931819376
474.9532192,2225069.470757097
473.6482074,2110047.0959418816
472.35378679999997,2012069.0451133356
471.06982989999995,1926937.083694149
469.79621110000005,1848803.3936388437
468.53280700000005,1773565.3659077869
467.2794956999999,1698957.1287841648
466.0361575,1622629.2853424626
464.80267410000005,1543892.4932747406
463.5789295,1461622.8573184928
462.364809,1375810.135094723
461.1601998,1287612.0828589126
459.9649909,1201466.675105682
458.7790727,1119690.963155104
457.6023374,1043032.1662545326
456.4346788,972315.0025902686
455.2759921,907922.2147203656
454.12617439999997,849949.4697889169
452.9851239,798346.222597989
451.85274060000006,752774.8156327814
450.7289258,711035.6611499919
449.6135822,672259.24770594
448.5066141,635978.8916426536
447.407927,601614.5917179395
446.317428,569115.3076100389
445.23502520000005,538389.902401317
444.1606283,508919.6112367355
443.0941482,480868.37367628893
442.03549699999996,454309.80633606896
440.9845882,429165.94844539714
439.9413364,405275.01856724685
438.9056575,382811.8527740261
437.87746860000004,361633.7934383925
436.85668780000003,341681.15621387016
435.8432345,322833.12995057914
434.83702930000004,304923.9801481886
433.83799369999997,287893.2601864245
432.84605039999997,271557.43827974674
431.8611232,255890.33430472808
430.8831369,240917.1274301279
429.9120175,226817.01445042915
428.94769169999995,213523.94117603442
427.9900874,201117.5617642633
427.03913370000004,189784.1964456604
426.0947602,179468.06032217902
425.1568978,170285.24689142848
424.22547829999996,162336.25683482428
423.3004343,155474.37731362373
422.3816994,149771.02606884172
421.4692081,145157.01415253367
420.56289569999996,141496.97862275413
419.66269850000003,138617.63346022947
418.7685535,136430.04075414065
417.8803987,134679.88730017876
416.9981727,133213.94699672944
416.12181519999996,131938.1754891473
415.25126639999996,130766.98369795913
414.38646760000006,129618.15566558774
413.5273605,128565.07568272002
412.673888,127677.71211864328
411.8259934,127154.47011945015
410.9836208,127129.03806958027
410.14671519999996,127684.24254184533
409.3152221,128967.21162580088
408.48908789999996,131014.86933194243
407.66825960000006,133733.57915448476
406.8526847,137057.79460345945
406.0423117,140852.20262713722
405.2370896,144811.66172477446
404.43696800000004,148771.7982466299
403.64189730000004,152475.2046640593
402.8518283,155725.57921496706
402.0667126,158396.1848516498
401.28650239999996,160368.2018202717
400.5111505,161569.1393624202
399.7406101,161791.03603470337
398.9748353,161039.8657628292
398.2137806,159315.52057279533
397.457401,156522.24589473158
396.7056521,152659.43612286056
395.9584903,147634.29335655321
395.2158722,141401.88820994488
394.4777551,133952.45844320414
393.7440968,125683.44100150616
393.0148555,116656.53153236599
392.2899901,106942.13804019584
391.56946,96850.01389739863
390.853225,86610.09890282256
390.1412452,76515.73364547263
389.43348169999996,66804.12364707244
388.7298955,57771.16205874477
388.03044839999995,49399.23598498172
387.3351027,41876.01694854089
386.6438209,35300.8092732208
385.95656610000003,29658.285844675323
385.2733019,24913.90444698587
384.5939922,21014.490214758207
383.9186014,17842.905548878225
383.2470943,15309.928310874982
382.5794362,13276.758222722105
381.9155926,11631.118854020206
381.2555296,10314.221711807115
380.59921360000004,9229.661331818863
379.9466115,8332.311640647991
379.29769039999996,7561.29100737961
378.652418,6912.2392979628075
378.0107622,6355.760449420315
377.37269130000004,5877.110579601638
376.73817410000004,5479.814484347111
376.1071796,5147.181389307615
375.47967719999997,4857.216663895102
374.8556368,4622.887640559523
374.2350283,4415.38281545464
373.6178223,4238.486425392737
373.0039896,4090.978241612293
372.3935012,3962.1166130269935
371.78632860000005,3854.8644523496882
371.1824436,3755.6490836153853
370.5818182,3662.3159586720726
369.98442489999996,3583.088832008136
369.39023629999997,3507.112068992247
368.7992255,3430.287225033475
368.2113658,3343.8558872348844
367.6266307,3271.3509683642133
367.0449943,3183.1961672628054
366.4664305,3095.2159686187547
365.89091410000003,2997.3032239478584
365.3184196,2907.5236330929934
364.7489221,2808.50768979391
364.18239689999996,2704.769195572423
363.61881960000005,2609.6179010313213
363.058166,2511.650024612661
362.50041219999997,2413.269370179501
361.94553460000003,2326.23129957512
361.3935098,2227.162302903279
360.8443147,2145.5210866359475
360.29792630000003,2055.120761663174
359.754322,1971.7037520133133
359.2134795,1890.7108493415049
358.6753765,1808.023158523733
358.1399912,1729.697633671411
357.6073018,1647.1798495024511
357.077287,1574.3384607259504
356.5499253,1517.1145801771838
356.025196,1453.2988640337112
355.50307799999996,1407.7411040968793
354.983551,1352.7478421958376
354.4665945,1308.4711755207595
353.95218839999995,1267.8599149957765
353.4403127,1225.8812745877178
352.9309478,1186.1952714920815
352.42407410000004,1144.1551077476954
351.9196722,1112.414248958777
351.4177232,1073.445637191201
350.91820789999997,1039.339329953302
350.4211078,1001.2983500623924
349.9264043,960.7278340002417
349.434079,925.7091935458427
348.9441137,893.5416999992592
348.45649060000005,864.6261266276207
347.97119169999996,837.6966716255638
347.48819960000003,806.5166263520109
347.0074967,778.6828501399697
346.5290657,749.6411718716652
346.0528897,726.5608635349187
345.5789517,697.0306425907864
345.1072349,665.159592345669
344.6377228,635.9618379066771
344.17039889999995,598.6496655066114
343.70524710000007,561.9077978744994
343.24225110000003,524.5047828225281
342.7813952,493.7789003205714
342.32266339999995,449.1558495226105
341.8660403,413.85759579005384
341.4115102,384.30363092138185
340.959058,347.31157317502266
340.5086685,313.2294997375048
340.06032660000005,284.9946877790166
339.6140175,256.3823081129559
339.1697264,225.62391285398147
338.7274388,185.8652785910496
338.28714019999995,159.94989009756546
337.8488164,129.48359365863195
337.41245310000005,94.2789829492895
336.9780363,69.91356157550518
336.5455522,52.720400519094866
336.114987,37.03287551576585
335.686327,24.95086407706888
335.2595588,15.971736894379468
334.834669,14.41143216964628
334.4116443,7.890249059940606
333.9904716,7.810787371348753
333.57113799999996,10.763758816431489
333.1536305,5.880105469029674
332.73793639999997,4.722018040886646
332.32404310000004,3.9488658009647284
331.91193799999996,0.968676329305804
331.5016088,1.3398226344041566
331.0930432,2.267945772268401
330.6862289,2.676234705887639
330.281154,-2.876310909408309
329.8778065,2.0227981563358486
329.47617460000004,1.697604912890444
329.07624649999997,0.934658232318692
328.6780106,-0.9843493275313722
328.2814555,1.8247588365819576
327.88656960000003,-0.7685070331884887
327.4933418,2.2020125692703534
327.1017607,-2.985895991215684
326.7118154,-2.0147686401640508
326.32349480000005,1.3607942280011394
325.93678789999996,-0.6321976459598978
325.5516841,-2.3669325660636407
325.16817260000005,2.512778613670851
324.7862428,3.4398098194279725
324.40588419999995,1.2793804292120263
324.0270864,1.1963762290950593
323.649839,-4.035096713029136
323.2741319,3.8421780888763593
322.8999548,2.1060870027837635
322.5272977,4.711513224426769
322.1561508,-1.2860991102765813
321.786504,0.7488174511225155
321.4183476,0.19254846321000602
321.0516719,2.7566356669585725
320.6864673,2.628828040369
320.3227243,2.0153164778050465
319.96043330000003,1.2405859225333522
319.5995851,-3.907204738332717
319.2401704,-3.9751941180670314
318.8821799,-4.5934012564188915
318.5256045,-2.133588899703976
318.1704352,-1.9205911512196443
317.8166631,1.7591958539048929
317.4642791,1.5302702366310683
317.1132746,0.3579211729719877
316.76364069999994,1.6915463414080554
316.4153688,2.084143727707953
316.06845039999996,-0.4446776064770126
315.72287689999996,-1.5162909147712886
315.37863980000003,0.5318105764423139
315.0357308,2.494827336133993
314.6941415,-0.16992144437395895
314.3538639,-3.4053218698583763
314.0148896,-2.111962158171646
313.6772106,-1.4276093569318131
313.3408189,0.8499985887856091
313.00570639999995,-0.902351079638386
312.67186549999997,4.839240577091744
312.33928810000003,2.0029910792809904
312.0079665,-0.9083543976286659
311.6778931,1.3592548944977223
311.34906010000003,0.9574935021367644
311.0214601,0.501109691079596
310.6950856,-0.9017777488388294
310.369929,-0.3404767333054297
310.04598300000004,-2.629301422755153
309.7232403,1.8868374931594891
309.4016935,2.528575732344213
309.0813356,2.3173317867820353
308.7621594,2.3451014079003656
308.4441577,-2.874466333552116
308.1273236,2.5128154450671176
307.8116501,3.7871447717140914
307.49713019999996,-0.051558451151212686
307.18375710000004,4.109550877676342
306.871524,0.9976492851078426
306.5604242,0.2501483698368198
306.2504509,-4.482869531676814
