wave,flux
1817.164934,2.599805244542972
1790.1022050000001,6.758720980522053
1763.812741,10.093991966948023
1738.2646949999998,58.6606111048262
1713.427949,209.01426360407018
1689.273995,594.6788842077559
1665.7758310000002,1468.6165412144696
1642.907862,2993.7202120483284
1620.64581,5176.281050020254
1598.9666300000001,8101.528373412248
1577.8484310000001,12000.703164395314
1557.270407,16797.786485542343
1537.212767,22569.904479833218
1517.65668,29043.757906031773
1498.5842089999999,36017.53255697335
1479.978265,43195.194558379786
1461.822555,50623.473377327224
1444.101535,57955.78233091744
1426.800368,65254.57624307949
1409.904887,72312.80189758407
1393.401553,79134.6592689165
1377.2774220000001,85758.28077975263
1361.520115,92302.91561435416
1346.117782,98649.50813516832
1331.059081,105079.41184029807
1316.3331449999998,111410.23239083074
1301.92956,117701.6651481814
1287.838342,123993.20987224964
1274.049912,130268.29555535529
1260.5550779999999,136505.39943773777
1247.345017,142648.53491248225
1234.4112519999999,148983.56641561462
1221.74564,155243.1304685798
1209.340352,161335.6964816759
1197.187859,167664.82784057778
1185.28092,173643.36446295536
1173.612564,179770.07116337246
1162.1760800000002,185740.841823546
1150.9650060000001,191900.04462392558
1139.973115,197872.54026105
1129.194406,204041.26782980352
1118.623093,209856.15366120837
1108.253594,216005.22872727868
1098.0805269999998,221652.87616872552
1088.098695,227507.5829272813
1078.303081,233470.6469961103
1068.688841,239212.05756696805
1059.251295,245309.2535639208
1049.9859199999999,251555.3036123532
1040.8883449999998,258250.35541806946
1031.9543429999999,265655.89495713776
1023.1798259999999,273938.84273783065
1014.5608390000001,282764.772318583
1006.0935529999999,292577.0650565381
997.774265,303212.5765674703
989.5993858999999,315330.855992951
981.5654412999999,327886.4873856706
973.6690651,341506.33087810327
965.9069952,355154.6557357799
958.2760697000001,368744.0243765714
950.7732231000001,383169.4706658782
943.3954827,397005.182350248
936.1399648,410748.8169756428
929.0038716,423638.77865183936
921.9844879000001,436000.3662717386
915.0791782,448388.33213920007
908.2853836000002,459805.691986926
901.6006193,471403.3481890054
895.0224714,483565.2251470298
888.548595,495423.3884486802
882.1767113,508159.9597458089
875.9046055,522811.13368940534
869.7301242999998,538142.6870553003
863.6511742999999,556521.7541834345
857.6657193,577986.8706655359
851.7717787,602692.8970408593
845.9674256000001,630569.072200009
840.2507849,664729.7371814232
834.6200316000001,703680.0990120732
829.0733892000001,747750.001927848
823.6091279,799351.0869537217
818.2255633999999,857272.0936970942
812.9210552000001,922301.0151363396
807.694005,994546.3521427134
802.5428559,1072467.302468448
797.4660904,1154435.5644183215
792.4622299,1242407.3060129923
787.5298327,1339928.2782993878
782.6674933999999,1449402.4034080696
777.8738417999999,1569239.6996782953
773.1475413,1714810.8773473322
768.4872882999999,1885678.0812924902
763.8918112000001,2092124.1623820013
759.3598692,2346329.3349025613
754.8902515999999,2650375.785582476
750.4817767999999,2990798.558292346
746.1332914,3370182.548391785
741.8436694000001,3769795.3248971943
737.6118116,4173673.1361089367
733.4366444,4570754.661378298
729.3171195,4936816.153956203
725.2522127999999,5258646.046986873
721.2409241,5512119.066173421
717.282276,5709128.730748063
713.3753136,5852056.13269971
709.5191037000001,5945850.042256969
705.7127343,6002095.640221188
701.9553139,6032905.8876909325
698.2459709,6039732.454715547
694.5838534,6042994.672560738
690.9681281000001,6044549.957251037
687.3979803,6039945.170452484
683.8726131,6040396.669587191
680.3912472999999,6043067.618165272
676.9531202000001,6039957.447489419
673.557486,6039260.845123951
670.2036149,6041414.747157537
666.8907926,6041699.205927242
663.6183202999999,6043527.702681861
660.3855139,6042002.481497916
657.1917038,6042290.869274122
654.0362346,6039800.978548665
650.9184646000001,6038872.011118128
647.8377654,6041671.722304304
644.7935217999999,6042200.277286111
641.7851312999999,6040817.526681545
638.8120038,6041534.662469034
635.8735614,6041081.512922217
632.9692378999999,6041832.892371049
630.0984786,6042324.938716256
627.2607402000001,6039943.541414564
624.4554901,6042481.947098178
621.6822068,6040857.496162847
618.940379,6041255.396328943
616.2295054,6041072.258612053
613.549095,6041487.834335676
610.8986664,6041271.389017267
608.2777476,6041819.820379783
605.6858758999999,6041261.848950192
603.1225977000001,6041969.718469505
600.5874682,6041449.124089393
598.0800512,6041596.365237856
595.5999188999999,6041561.780533653
593.1466518,6041268.04964277
590.7198384999999,6041331.022281641
588.3190752,6041270.483362415
585.943966,6041731.060392176
583.5941226,6041489.970686343
581.2691637,6041252.150750058
578.9687155,6041570.38676444
576.692411,6041128.000987591
574.4398902,6041477.999674765
572.2107997,6041551.664997973
570.0047927,6041341.23889059
567.8215287,6041428.797062366
565.6606737000001,6041363.182826869
563.5218996,6041312.26488209
561.4048845,6041128.527556911
559.3093121,6041826.608972881
557.2348721,6041350.609998964
555.1812597,6041575.031064569
553.1481756000001,6041554.971918226
551.1353259,6041601.0886351885
549.1424218999999,6041382.454657479
547.1691801,6041454.409351482
545.2153222000001,6041358.38391398
543.2805745000001,6041418.427544032
541.3646685,6041329.083844692
539.46734,6041383.507418355
537.5883299,6041712.926023398
535.7273833,6041441.2088408135
533.8842498,6041366.76767705
532.0586836,6041295.247948502
530.2504428000001,6041378.090195194
528.45929,6041634.0971056335
526.6849915,6041339.890838099
524.927318,6041623.290043499
523.186044,6041620.54635541
521.4609475999999,6041114.333005235
519.7518110000001,6041697.038768347
518.0584200000001,6041819.990121253
516.3805639,6041516.388100991
514.7180356,6041670.870645885
513.0706316000001,6041061.352106622
511.43815149999995,6041424.725682748
509.82039860000003,6041325.7079364685
508.2171791999999,6041582.548732786
506.628303,6041490.330465684
505.05358269999994,6041551.524150585
503.4928341,6041273.794235061
501.9458762,6041408.68743058
500.41253059999997,6041536.9380631065
498.8926222,6041579.295247239
497.3859785,6037985.1710688835
495.89242989999997,6028915.587100834
494.4118094,6011123.706028052
492.943953,5981470.837862875
491.488699,5938580.8787662275
490.04588839999997,5881861.756941701
488.6153648,5806535.298517064
487.19697429999997,5714497.818855208
485.7905654,5608788.0932475785
484.39598889999996,5494400.193018432
483.01309800000007,5374794.731563693
481.64174840000004,5255070.265200454
480.28179789999996,5136619.359544111
478.93310639999993,5022114.704108382
477.59553619999997,4914222.356530428
476.2689517,4813069.210641672
474.9532192,4718232.595613717
473.6482074,4626866.716435007
472.35378679999997,4537777.746686063
471.06982989999995,4448170.438116706
469.79621110000005,4357106.114499266
468.53280700000005,4262707.065897655
467.2794956999999,4164528.5770574613
466.0361575,4061516.345128385
464.80267410000005,3953435.6267633415
463.5789295,3840808.05166058
462.364809,3724478.2526099063
461.1601998,3605340.6268979013
459.9649909,3485265.04619438
458.7790727,3366342.5981635787
457.6023374,3250656.4547310867
456.4346788,3139439.3536645863
455.2759921,3034319.42558878
454.12617439999997,2936082.754945119
452.9851239,2845489.847698562
451.85274060000006,2761940.9926940147
450.7289258,2684486.071726168
449.6135822,2611727.4026072123
448.5066141,2541689.8548727673
447.407927,2473062.897876437
446.317428,2403610.59741602
445.23502520000005,2331981.099765617
444.1606283,2257693.331467736
443.0941482,2180277.7720687967
442.03549699999996,2099686.3620603383
440.9845882,2017063.0855178519
439.9413364,1933120.9192227854
438.9056575,1849740.3007243774
437.87746860000004,1767877.4035482646
436.85668780000003,1688796.3212844725
435.8432345,1613391.1853966503
434.83702930000004,1541960.2458009615
433.83799369999997,1475217.5079198692
432.84605039999997,1412633.5079036348
431.8611232,1353677.3951250808
430.8831369,1298262.5263702641
429.9120175,1245732.4704429677
428.94769169999995,1195381.7211423465
427.9900874,1146962.8766458463
427.03913370000004,1100154.4174651294
426.0947602,1054727.2290467012
425.1568978,1010462.825273943
424.22547829999996,967378.5837897572
423.3004343,925248.5169924741
422.3816994,884016.2259760527
421.4692081,843679.9858852788
420.56289569999996,803908.3661960457
419.66269850000003,764600.455138114
418.7685535,725663.337504293
417.8803987,687188.8295536644
416.9981727,648967.3091617691
416.12181519999996,611315.5938653997
415.25126639999996,574311.9753967879
414.38646760000006,538362.3375232198
413.5273605,503851.637936743
412.673888,470956.8776285059
411.8259934,440199.25697816885
410.9836208,411825.5258820972
410.14671519999996,386001.46116768953
409.3152221,362863.7775126767
408.48908789999996,342327.9879385878
407.66825960000006,324220.9482091764
406.8526847,308397.30609173514
406.0423117,294486.69985414646
405.2370896,282197.00280616863
404.43696800000004,271260.2853926319
403.64189730000004,261398.010523628
402.8518283,252432.0944040069
402.0667126,244128.1756856905
401.28650239999996,236496.14808200995
400.5111505,229267.76210205012
399.7406101,222524.3204094554
398.9748353,216149.57240485988
398.2137806,210085.79582377843
397.457401,204291.52982557198
396.7056521,198680.6246803905
395.9584903,193140.3335047698
395.2158722,187610.79037514466
394.4777551,182029.60920169574
393.7440968,176330.64306385827
393.0148555,170380.82271719462
392.2899901,164227.07423593337
391.56946,157749.77563186552
390.853225,151022.77659192355
390.1412452,144031.6898684292
389.43348169999996,136794.47216926163
388.7298955,129389.8383682759
388.03044839999995,121897.46514675945
387.3351027,114370.4827877125
386.6438209,106854.64223032306
385.95656610000003,99492.05925823114
385.2733019,92287.79086732703
384.5939922,85370.59986838109
383.9186014,78704.16113630602
383.2470943,72382.01407046888
382.5794362,66418.60758459331
381.9155926,60849.087992099296
381.2555296,55627.75278674985
380.59921360000004,50813.037158433515
379.9466115,46402.95600344896
379.29769039999996,42349.233698036354
378.652418,38682.23870802858
378.0107622,35348.87972605019
377.37269130000004,32348.22195980056
376.73817410000004,29684.83304035134
376.1071796,27302.96251256338
375.47967719999997,25200.88347290757
374.8556368,23330.044873709667
374.2350283,21674.816534278158
373.6178223,20216.00747730338
373.0039896,18927.94889402675
372.3935012,17767.551651372007
371.78632860000005,16732.684107704372
371.1824436,15781.643463998716
370.5818182,14933.265773869995
369.98442489999996,14129.548124549316
369.39023629999997,13377.043182869695
368.7992255,12654.705882084958
368.2113658,11972.471686806692
367.6266307,11324.767125702707
367.0449943,10704.616591902146
366.4664305,10112.210822792023
365.89091410000003,9551.223021639684
365.3184196,9024.761814130616
364.7489221,8540.401078075061
364.18239689999996,8090.871951554705
363.61881960000005,7664.195749688128
363.058166,7273.837930972151
362.50041219999997,6901.480390746956
361.94553460000003,6549.282149638309
361.3935098,6219.6156752104835
360.8443147,5890.2575892459545
360.29792630000003,5578.431427364379
359.754322,5268.613664465068
359.2134795,4978.289166033978
358.6753765,4691.968207177106
358.1399912,4410.875863753945
357.6073018,4145.967091018648
357.077287,3886.01648120017
356.5499253,3644.301032361913
356.025196,3413.053738304836
355.50307799999996,3194.4558260338695
354.983551,2981.348500803007
354.4665945,2779.880122798653
353.95218839999995,2593.688215920037
353.4403127,2410.864176942065
352.9309478,2243.121201946344
352.42407410000004,2085.37950048715
351.9196722,1946.442716647053
351.4177232,1807.4605663647014
350.91820789999997,1681.6724288081055
350.4211078,1572.0672357295746
349.9264043,1471.967462564192
349.434079,1380.484495753372
348.9441137,1298.4090056212606
348.45649060000005,1228.2786276093236
347.97119169999996,1160.8183551734046
347.48819960000003,1097.981427043985
347.0074967,1041.2491783406724
346.5290657,995.6043404207106
346.0528897,938.1801789342258
345.5789517,887.8458310259407
345.1072349,837.2463241982683
344.6377228,792.3309187652636
344.17039889999995,744.9223704212973
343.70524710000007,702.8427908543488
343.24225110000003,661.7620182527178
342.7813952,623.7168941156141
342.32266339999995,587.2940656382679
341.8660403,553.7686352440763
341.4115102,522.289204670837
340.959058,484.5126864000792
340.5086685,451.171325745841
340.06032660000005,424.11380200833685
339.6140175,392.68867314070707
339.1697264,366.5998261696878
338.7274388,330.06597331750635
338.28714019999995,303.8896332234501
337.8488164,271.91721209281957
337.41245310000005,248.60042015958493
336.9780363,219.86026494589024
336.5455522,200.81944896147039
336.114987,172.54119181967857
335.686327,145.79092307944282
335.2595588,132.04658055558076
334.834669,112.63433637121493
334.4116443,98.13188600430145
333.9904716,76.025532695624
333.57113799999996,72.57393559977385
333.1536305,54.420508356036294
332.73793639999997,49.240861087337805
332.32404310000004,36.41082214910856
331.91193799999996,30.283244005576893
331.5016088,23.437862085841907
331.0930432,13.957679924297947
330.6862289,17.026682284914592
330.281154,13.29088017873324
329.8778065,3.0323909952816654
329.47617460000004,4.983715224255132
329.07624649999997,5.247378764426874
328.6780106,3.3877802098936924
328.2814555,5.45964471703658
327.88656960000003,-1.241133511584236
327.4933418,-1.8073972027059009
327.1017607,-0.7588202014262371
326.7118154,1.356060629767414
326.32349480000005,3.7015268558815766
325.93678789999996,1.260446546776845
325.5516841,6.1079364579603865
325.16817260000005,6.911169089887772
324.7862428,-3.7319566814330285
324.40588419999995,1.2824173960324776
324.0270864,1.4792945807495919
323.649839,1.3951570333743222
323.2741319,-3.413265238744608
322.8999548,4.465681897624902
322.5272977,3.775103495108752
322.1561508,-0.4428704044228677
321.786504,-1.4447288510382952
321.4183476,5.185761526826433
321.0516719,-2.8523017339699392
320.6864673,-2.356464948331757
320.3227243,-1.3947489476984098
319.96043330000003,1.3838022236884822
319.5995851,2.47582833092139
319.2401704,-2.671968886889674
318.8821799,1.2068388572802986
318.5256045,2.5563729906032435
318.1704352,1.3655202141553011
317.8166631,0.7954525231232076
317.4642791,0.5943510933328066
317.1132746,-0.24153633032523605
316.76364069999994,-0.33794820151968835
316.4153688,1.8660135226541184
316.06845039999996,3.4667763891724324
315.72287689999996,-0.4956424418843752
315.37863980000003,4.345730820698439
315.0357308,2.6442950401613112
314.6941415,-0.19745474242282493
314.3538639,-4.312151148384594
314.0148896,-1.4334085216141237
313.6772106,-0.17946136676781346
313.3408189,-0.4968607023673693
313.00570639999995,0.478246789782788
312.67186549999997,0.11742380378201416
312.33928810000003,2.189558135826672
312.0079665,-1.8100644760186797
311.6778931,-2.118535869391942
311.34906010000003,0.9335429426263544
311.0214601,-1.834800045452435
310.6950856,-4.273708601102548
310.369929,2.31474190855886
310.04598300000004,4.8437290066018575
309.7232403,-1.19792104085015
309.4016935,0.9064187328705235
309.0813356,3.3852287103031955
308.7621594,-2.205193780654969
308.4441577,0.2703925561307094
308.1273236,5.249205478500165
307.8116501,1.040955509834163
307.49713019999996,1.668149343968368
307.18375710000004,0.5527210464997524
306.871524,-1.0808520544525642
306.5604242,-0.0720043311205037
306.2504509,-3.367908654723464
