wave,flux
1817.164934,8.2664321454184
1790.1022050000001,0.9991874182507942
1763.812741,-8.173117308703365
1738.2646949999998,33.610734324957434
1713.427949,109.56786907851796
1689.273995,550.8911322649218
1665.7758310000002,1584.0072406129445
1642.907862,3217.9789151498103
1620.64581,5530.797055599739
1598.9666300000001,8579.850902175725
1577.8484310000001,12370.472122571491
1557.270407,16912.93066180039
1537.212767,22275.608663496845
1517.65668,27853.177369891982
1498.5842089999999,33390.22603137643
1479.978265,38780.67353688379
1461.822555,44021.15630818989
1444.101535,48971.932235497
1426.800368,53701.14068999459
1409.904887,58020.47298248412
1393.401553,62073.12311029435
1377.2774220000001,66002.09856920164
1361.520115,69870.08523518669
1346.117782,73702.26300845614
1331.059081,77607.16168257182
1316.3331449999998,81418.31148964126
1301.92956,85265.71578641022
1287.838342,89131.29183962035
1274.049912,92990.04564059354
1260.5550779999999,96855.5243905676
1247.345017,100745.88338743956
1234.4112519999999,104600.35121596082
1221.74564,108446.66094966108
1209.340352,112321.7185942902
1197.187859,116149.36070622467
1185.28092,120057.2137711916
1173.612564,123835.35950183465
1162.1760800000002,127806.14507489385
1150.9650060000001,131653.46623767394
1139.973115,135597.65603569776
1129.194406,139538.54647598593
1118.623093,143319.9243943835
1108.253594,147151.91038667524
1098.0805269999998,150956.00545476732
1088.098695,155050.97632066975
1078.303081,158969.02185950964
1068.688841,163236.97607275794
1059.251295,167741.04241523554
1049.9859199999999,172600.7220930664
1040.8883449999998,178052.11234621648
1031.9543429999999,184128.86838186003
1023.1798259999999,191144.5407742566
1014.5608390000001,198934.77138172524
1006.0935529999999,207675.15535004085
997.774265,217075.73832875906
989.5993858999999,227292.42732826577
981.5654412999999,237940.85249050058
973.6690651,248968.42387001138
965.9069952,260176.23929606343
958.2760697000001,270828.5529749685
950.7732231000001,281555.679049848
943.3954827,292001.4376131058
936.1399648,301574.8109829575
929.0038716,310670.33054661384
921.9844879000001,319361.5073792661
915.0791782,327409.1593878107
908.2853836000002,335254.0624362104
901.6006193,343210.552778463
895.0224714,351514.895483296
888.548595,360722.96201786655
882.1767113,370568.2297353782
875.9046055,382260.66738889436
869.7301242999998,395162.1670353603
863.6511742999999,411058.94178443385
857.6657193,429287.3515134629
851.7717787,450531.18640743283
845.9674256000001,476176.917940306
840.2507849,506139.88725643046
834.6200316000001,541504.1309060099
829.0733892000001,581576.2599263721
823.6091279,628091.3843640552
818.2255633999999,678983.2420746093
812.9210552000001,736439.4517078256
807.694005,796503.9181907544
802.5428559,861432.4108184928
797.4660904,928115.0025727423
792.4622299,997456.1040130174
787.5298327,1073000.9136156838
782.6674933999999,1156400.7743946824
777.8738417999999,1254146.379182777
773.1475413,1371869.4418253542
768.4872882999999,1516689.8730143053
763.8918112000001,1698743.2585057155
759.3598692,1921295.896960756
754.8902515999999,2187417.78005194
750.4817767999999,2499357.8688779
746.1332914,2857056.0389596717
741.8436694000001,3241533.19647715
737.6118116,3648502.9454869716
733.4366444,4052642.818874309
729.3171195,4447008.955437801
725.2522127999999,4805735.884522479
721.2409241,5125100.117116926
717.282276,5395847.510243166
713.3753136,5609331.743091743
709.5191037000001,5771459.96070542
705.7127343,5882079.312104433
701.9553139,5958002.17350484
698.2459709,6002281.079373187
694.5838534,6026468.81656048
690.9681281000001,6036807.1971662175
687.3979803,6041361.386051808
683.8726131,6040850.234053472
680.3912472999999,6042151.464226848
676.9531202000001,6042923.439010236
673.557486,6039398.575977955
670.2036149,6041039.487351834
666.8907926,6043077.061875374
663.6183202999999,6040135.973912718
660.3855139,6041821.425808897
657.1917038,6041574.039778792
654.0362346,6041580.611282034
650.9184646000001,6042123.6443309225
647.8377654,6041348.941183749
644.7935217999999,6042284.76681445
641.7851312999999,6039608.937055938
638.8120038,6041331.644889326
635.8735614,6041070.132423948
632.9692378999999,6043704.8260608725
630.0984786,6041340.984189735
627.2607402000001,6041193.98144413
624.4554901,6041148.25629137
621.6822068,6041307.078764609
618.940379,6040891.322237829
616.2295054,6041614.392258471
613.549095,6041468.670830599
610.8986664,6041711.945500694
608.2777476,6041297.375911842
605.6858758999999,6041335.902187365
603.1225977000001,6041480.458805199
600.5874682,6041365.992164077
598.0800512,6041386.626922988
595.5999188999999,6041157.534116701
593.1466518,6041902.984782859
590.7198384999999,6041510.481000638
588.3190752,6041580.821210598
585.943966,6041435.856761365
583.5941226,6041546.5413206015
581.2691637,6041466.310505194
578.9687155,6041574.907256829
576.692411,6041153.020763724
574.4398902,6041309.263628298
572.2107997,6041564.326268496
570.0047927,6041193.830838295
567.8215287,6041396.614158267
565.6606737000001,6041288.244170993
563.5218996,6041213.599252732
561.4048845,6041056.929250185
559.3093121,6041964.478708629
557.2348721,6041208.785310789
555.1812597,6041293.021973675
553.1481756000001,6041234.335370895
551.1353259,6041087.462145743
549.1424218999999,6041830.674795459
547.1691801,6041246.864039074
545.2153222000001,6041112.520416377
543.2805745000001,6041346.012894778
541.3646685,6041436.988921062
539.46734,6041539.794927307
537.5883299,6041160.920542269
535.7273833,6041266.37979665
533.8842498,6041244.132181405
532.0586836,6041530.24966772
530.2504428000001,6040984.533506587
528.45929,6041269.331909951
526.6849915,6041344.367259599
524.927318,6041118.719661802
523.186044,6041447.742414557
521.4609475999999,6041296.862968572
519.7518110000001,6041251.526814507
518.0584200000001,6041819.626518282
516.3805639,6041317.968212048
514.7180356,6041843.877598517
513.0706316000001,6041606.390565054
511.43815149999995,6041661.187103116
509.82039860000003,6041608.57500054
508.2171791999999,6041431.350369978
506.628303,6041402.723369982
505.05358269999994,6041514.360397227
503.4928341,6041116.085834126
501.9458762,6041253.525195255
500.41253059999997,6041609.771353039
498.8926222,6041691.195512615
497.3859785,6041566.50850852
495.89242989999997,6040794.431831742
494.4118094,6041378.86820655
492.943953,6041286.407482033
491.488699,6041831.365181111
490.04588839999997,6041028.070639764
488.6153648,6041496.799273685
487.19697429999997,6041509.874486985
485.7905654,6041413.963012184
484.39598889999996,6041497.128146058
483.01309800000007,6041156.2133082235
481.64174840000004,6041520.883586488
480.28179789999996,6041229.182740318
478.93310639999993,6041628.683554071
477.59553619999997,6041353.072728583
476.2689517,6041292.4342093775
474.9532192,6041578.831689398
473.6482074,6041279.873104213
472.35378679999997,6041279.4638796635
471.06982989999995,6041322.260945584
469.79621110000005,6041427.578447164
468.53280700000005,6041244.943005114
467.2794956999999,6041524.321434717
466.0361575,6041387.1241725385
464.80267410000005,6041197.747791697
463.5789295,6041384.7083773
462.364809,6041275.34115637
461.1601998,6040263.405352312
459.9649909,6033904.850531798
458.7790727,6019679.433763505
457.6023374,5994443.934357141
456.4346788,5955181.362223461
455.2759921,5897971.794433711
454.12617439999997,5821562.429539869
452.9851239,5721273.359271877
451.85274060000006,5598272.695913973
450.7289258,5455189.9511780115
449.6135822,5297043.390678812
448.5066141,5127465.960532634
447.407927,4949993.0390464505
446.317428,4769480.012538055
445.23502520000005,4590072.641477827
444.1606283,4416976.210050654
443.0941482,4252519.433898436
442.03549699999996,4097937.33769192
440.9845882,3953315.9686390567
439.9413364,3819148.525432414
438.9056575,3693644.219721554
437.87746860000004,3575353.5215540417
436.85668780000003,3461697.7064626487
435.8432345,3351435.70387092
434.83702930000004,3240710.909618218
433.83799369999997,3128966.96496844
432.84605039999997,3014576.592875044
431.8611232,2896547.3336558533
430.8831369,2776393.2597255292
429.9120175,2655371.337194601
428.94769169999995,2534906.490972325
427.9900874,2417745.7881416567
427.03913370000004,2304961.595029048
426.0947602,2198241.352358776
425.1568978,2098692.225457104
424.22547829999996,2006985.1990849415
423.3004343,1922831.174166094
422.3816994,1845739.6687774563
421.4692081,1774906.0705882134
420.56289569999996,1709120.289283056
419.66269850000003,1647948.9314082372
418.7685535,1590089.81980402
417.8803987,1534883.5083144403
416.9981727,1481875.8506003984
416.12181519999996,1430813.0086916718
415.25126639999996,1381326.5277790271
414.38646760000006,1333093.9070656556
413.5273605,1286219.1057221994
412.673888,1240355.6484060257
411.8259934,1195641.4076231734
410.9836208,1151442.1835191008
410.14671519999996,1108015.3847871905
409.3152221,1065122.6029148237
408.48908789999996,1022690.6691422705
407.66825960000006,980595.206325695
406.8526847,938923.6550592426
406.0423117,897839.4791744434
405.2370896,857125.6393130475
404.43696800000004,817328.5083669663
403.64189730000004,778275.5970842794
402.8518283,740180.2492918456
402.0667126,703032.8565634419
401.28650239999996,666639.0400267869
400.5111505,631292.2661814063
399.7406101,596312.4111324846
398.9748353,561891.8537427172
398.2137806,527658.357113131
397.457401,493557.4601347657
396.7056521,459514.6591076325
395.9584903,425643.2364628882
395.2158722,392109.0088886679
394.4777551,358903.38508517883
393.7440968,327016.9001183897
393.0148555,296669.6996964913
392.2899901,268044.00053185486
391.56946,241576.8900339373
390.853225,217514.27917457052
390.1412452,195887.74373871885
389.43348169999996,176813.817894599
388.7298955,160120.8036723356
388.03044839999995,145527.19356921565
387.3351027,132818.94709622243
386.6438209,121968.11200834686
385.95656610000003,112558.98884687523
385.2733019,104401.56242130023
384.5939922,97368.83859875752
383.9186014,91217.43663005604
383.2470943,85818.92146546968
382.5794362,81043.38198664728
381.9155926,76741.94211287344
381.2555296,72859.46357070384
380.59921360000004,69239.60676882522
379.9466115,65870.72938903622
379.29769039999996,62712.040502852324
378.652418,59721.805444416306
378.0107622,56893.373526338786
377.37269130000004,54215.649919934884
376.73817410000004,51628.034623856765
376.1071796,49169.81697638281
375.47967719999997,46812.06598945244
374.8556368,44568.74083499456
374.2350283,42424.93304854685
373.6178223,40359.66193844345
373.0039896,38385.56393854103
372.3935012,36480.94852804103
371.78632860000005,34649.66285152333
371.1824436,32877.479258525986
370.5818182,31177.595790861356
369.98442489999996,29534.45649705194
369.39023629999997,27975.465112356334
368.7992255,26453.473788501284
368.2113658,25012.529875808657
367.6266307,23630.7361887566
367.0449943,22332.928309708182
366.4664305,21104.37717194927
365.89091410000003,19928.11187486232
365.3184196,18843.009624709724
364.7489221,17813.095160581586
364.18239689999996,16827.32942864268
363.61881960000005,15877.324517296829
363.058166,14968.675486253149
362.50041219999997,14092.934402626397
361.94553460000003,13247.925614105552
361.3935098,12423.058837819368
360.8443147,11649.139558919687
360.29792630000003,10886.307989703177
359.754322,10193.395569772889
359.2134795,9543.627491402205
358.6753765,8948.289059646519
358.1399912,8401.665393404079
357.6073018,7900.960435690814
357.077287,7443.476545113255
356.5499253,7017.751757576569
356.025196,6625.915399343026
355.50307799999996,6248.549064272224
354.983551,5897.465372447801
354.4665945,5545.9495796585925
353.95218839999995,5219.431992236528
353.4403127,4895.344842133185
352.9309478,4592.742280233532
352.42407410000004,4305.14921855708
351.9196722,4043.362935755141
351.4177232,3781.2131139498815
350.91820789999997,3538.469998206637
350.4211078,3308.831770924053
349.9264043,3089.3064196295477
349.434079,2880.734003484151
348.9441137,2671.377739991297
348.45649060000005,2470.0430725617543
347.97119169999996,2274.677249610801
347.48819960000003,2084.8900320969133
347.0074967,1901.8093907171847
346.5290657,1727.9516043666254
346.0528897,1565.7329195804302
345.5789517,1415.5301421178424
345.1072349,1269.4732066367915
344.6377228,1141.4464256240922
344.17039889999995,1026.724164539047
343.70524710000007,917.7579651535943
343.24225110000003,815.6341185726967
342.7813952,723.3336582510535
342.32266339999995,636.5685628919672
341.8660403,547.994574565575
341.4115102,470.13428434865676
340.959058,399.44920686589546
340.5086685,331.41894102631517
340.06032660000005,267.64555404749956
339.6140175,212.2159018627684
339.1697264,161.01891224610586
338.7274388,119.52695941915137
338.28714019999995,86.26577970838719
337.8488164,53.081817644837315
337.41245310000005,33.300966486890175
336.9780363,24.306164062993048
336.5455522,10.27757864411698
336.114987,7.1474193763450815
335.686327,6.406285878074899
335.2595588,1.6344711136148713
334.834669,-2.3477934745038147
334.4116443,1.073712740876716
333.9904716,-1.3516699546723692
333.57113799999996,0.3791122307744713
333.1536305,-3.2414897576589508
332.73793639999997,0.603294203756083
332.32404310000004,-2.26696234724348
331.91193799999996,-1.2491687092162194
331.5016088,-1.8614768328148132
331.0930432,-3.402590771779592
330.6862289,-0.2278437202538073
330.281154,-2.2153383451657422
329.8778065,2.0954621696229343
329.47617460000004,-1.8593782711650464
329.07624649999997,-0.5931421758693071
328.6780106,1.6697213426777768
328.2814555,0.6447355371441312
327.88656960000003,1.0865892800324477
327.4933418,-1.7564480257779018
327.1017607,2.193709803618522
326.7118154,4.216736356533975
326.32349480000005,-0.5907553489567599
325.93678789999996,-0.8005005350815427
325.5516841,8.203199384373628
325.16817260000005,-0.5502459694197359
324.7862428,2.2790740881623845
324.40588419999995,-5.172894099160084
324.0270864,0.5930346957453166
323.649839,-3.2092568718002963
323.2741319,0.8544466381996901
322.8999548,0.7457300590035725
322.5272977,-1.8690412418940645
322.1561508,0.05174263160339007
321.786504,1.2263151549925635
321.4183476,1.8326388651098
321.0516719,-3.146729573017717
320.6864673,1.065201938304748
320.3227243,-1.9516824934185333
319.96043330000003,-3.049026815890121
319.5995851,-0.07574850334559277
319.2401704,0.5159244092802968
318.8821799,0.8307340548095771
318.5256045,2.4143789788275782
318.1704352,-0.21774756971515505
317.8166631,-1.0578015005367207
317.4642791,-3.7318313557330254
317.1132746,2.7295092103501135
316.76364069999994,-4.1556882920054345
316.4153688,2.3835607040742017
316.06845039999996,6.4357453511292215
315.72287689999996,-2.218811722980634
315.37863980000003,2.1758469590169915
315.0357308,1.3506104341126737
314.6941415,1.5072465829440669
314.3538639,-1.805212559946328
314.0148896,0.17923959868431108
313.6772106,-4.0108473502507636
313.3408189,0.2912049678782
313.00570639999995,1.4508282190693715
312.67186549999997,1.040974236899644
312.33928810000003,-1.291232321324847
312.0079665,0.8039769899764189
311.6778931,0.9494169441543644
311.34906010000003,0.8760006446493644
311.0214601,0.8795176335502362
310.6950856,1.3655509307972875
310.369929,2.4942947683456125
310.04598300000004,-0.3544086178160388
309.7232403,0.7820720057085575
309.4016935,-1.8827923027834663
309.0813356,3.842155492678813
308.7621594,1.8096696309347744
308.4441577,-1.1269303653708995
308.1273236,-0.4597956650947487
307.8116501,2.452596561605324
307.49713019999996,-3.084525934752317
307.18375710000004,0.10055880092560557
306.871524,0.1553761356482328
306.5604242,1.713656197283577
306.2504509,-0.2081158460246517
