wave,flux
1817.164934,36.22389027470658
1790.1022050000001,-15.94928919784285
1763.812741,48.20382352095622
1738.2646949999998,-1.4673004375027432
1713.427949,198.83723091991592
1689.273995,1817.5088806675265
1665.7758310000002,5401.209902088518
1642.907862,11127.273505597246
1620.64581,18969.82814809652
1598.9666300000001,29184.272831457147
1577.8484310000001,41778.64285099147
1557.270407,56646.192410900185
1537.212767,73984.70369133263
1517.65668,91194.12486514906
1498.5842089999999,107381.1694439667
1479.978265,122663.984165199
1461.822555,136688.30952537403
1444.101535,149064.55915927433
1426.800368,160411.44058061598
1409.904887,170171.82152628188
1393.401553,178261.0604644382
1377.2774220000001,185793.33111341688
1361.520115,193418.99825938648
1346.117782,200863.7367301249
1331.059081,208220.31506645874
1316.3331449999998,215443.99939214
1301.92956,222911.02503979317
1287.838342,229880.4463448587
1274.049912,237024.87319410144
1260.5550779999999,244121.72158067767
1247.345017,251407.4957908093
1234.4112519999999,258640.86684884512
1221.74564,265890.1823776104
1209.340352,272788.1725899769
1197.187859,280006.7429727491
1185.28092,287002.5707880557
1173.612564,294360.426674066
1162.1760800000002,301736.60538976564
1150.9650060000001,308949.1633588697
1139.973115,316082.6260209269
1129.194406,323191.15448985586
1118.623093,330347.85317837005
1108.253594,337271.00043779885
1098.0805269999998,344143.367523755
1088.098695,351229.32603178115
1078.303081,358477.7323051789
1068.688841,365712.3573471429
1059.251295,374214.88627822
1049.9859199999999,383716.6666583953
1040.8883449999998,394677.51255084376
1031.9543429999999,407766.6398873396
1023.1798259999999,423861.9397700628
1014.5608390000001,441957.11302910966
1006.0935529999999,462954.96818814
997.774265,485880.8994309604
989.5993858999999,510817.3151166658
981.5654412999999,537020.1631101337
973.6690651,563694.268262117
965.9069952,589962.0180607316
958.2760697000001,615216.3249780453
950.7732231000001,638664.8021157689
943.3954827,659586.9658239138
936.1399648,678319.7339618965
929.0038716,693990.2433658643
921.9844879000001,707944.4944612897
915.0791782,719282.6570258648
908.2853836000002,729819.8182480505
901.6006193,739234.3299434225
895.0224714,750968.0097418895
888.548595,762566.5260332752
882.1767113,779448.2696834053
875.9046055,801091.8287307721
869.7301242999998,828554.113717368
863.6511742999999,862565.2916495053
857.6657193,905377.6569161944
851.7717787,960997.5067064314
845.9674256000001,1026351.6653295412
840.2507849,1106372.9687852988
834.6200316000001,1204843.5665323064
829.0733892000001,1318760.190751666
823.6091279,1447802.1137686912
818.2255633999999,1593964.1635407757
812.9210552000001,1755512.629476689
807.694005,1924707.2319732138
802.5428559,2098641.763444084
797.4660904,2278957.694300713
792.4622299,2465186.261728906
787.5298327,2661592.382378356
782.6674933999999,2877832.925949118
777.8738417999999,3121390.067565788
773.1475413,3386299.5997741283
768.4872882999999,3680036.169945828
763.8918112000001,3995737.904900448
759.3598692,4330015.48886924
754.8902515999999,4668753.20290659
750.4817767999999,4990931.259604199
746.1332914,5277638.952639358
741.8436694000001,5516700.12016724
737.6118116,5704005.04975328
733.4366444,5848297.245697863
729.3171195,5947472.560184504
725.2522127999999,6003272.076644163
721.2409241,6033974.749460086
717.282276,6041253.72719572
713.3753136,6040921.499159444
709.5191037000001,6040138.905146065
705.7127343,6042860.611478727
701.9553139,6043208.015060702
698.2459709,6043149.690640723
694.5838534,6040534.255520048
690.9681281000001,6041799.956680434
687.3979803,6043133.230596001
683.8726131,6044613.511034024
680.3912472999999,6043150.16032178
676.9531202000001,6041431.705899469
673.557486,6040025.263525854
670.2036149,6040055.510636518
666.8907926,6040374.75397939
663.6183202999999,6042006.751302348
660.3855139,6042591.995683792
657.1917038,6038872.640361478
654.0362346,6043139.9089524485
650.9184646000001,6039513.80948873
647.8377654,6038897.74598003
644.7935217999999,6040341.569168089
641.7851312999999,6041700.402458727
638.8120038,6043382.090662976
635.8735614,6042362.513506088
632.9692378999999,6040479.089444143
630.0984786,6044029.010965101
627.2607402000001,6041527.24695207
624.4554901,6041681.098144726
621.6822068,6040730.198228032
618.940379,6040409.810240934
616.2295054,6041309.920232902
613.549095,6041441.803294666
610.8986664,6041735.312124552
608.2777476,6041888.144280437
605.6858758999999,6041698.328515537
603.1225977000001,6041311.460121612
600.5874682,6041370.730568771
598.0800512,6041348.75815131
595.5999188999999,6041094.8064501425
593.1466518,6041791.544460143
590.7198384999999,6041423.054508931
588.3190752,6041479.8734848285
585.943966,6041155.658918741
583.5941226,6041312.774174755
581.2691637,6041371.193314624
578.9687155,6041143.8385519525
576.692411,6041466.0825139815
574.4398902,6041302.853039438
572.2107997,6041225.527727439
570.0047927,6041295.846852574
567.8215287,6041358.767867544
565.6606737000001,6041480.183676397
563.5218996,6041547.72630618
561.4048845,6041383.787353646
559.3093121,6041438.315046783
557.2348721,6041454.574012363
555.1812597,6041507.393304818
553.1481756000001,6041608.940523542
551.1353259,6041294.6932021985
549.1424218999999,6041553.314568178
547.1691801,6041339.812638854
545.2153222000001,6041556.746058333
543.2805745000001,6041622.513398643
541.3646685,6041477.92253991
539.46734,6041858.93862608
537.5883299,6041256.550038443
535.7273833,6041828.779518577
533.8842498,6041485.206994465
532.0586836,6041072.449956917
530.2504428000001,6041142.098128048
528.45929,6041351.894231234
526.6849915,6041478.582805677
524.927318,6041052.396238818
523.186044,6041376.200373046
521.4609475999999,6041614.168216299
519.7518110000001,6041290.797146734
518.0584200000001,6041405.638615233
516.3805639,6041540.229378155
514.7180356,6041217.1042575715
513.0706316000001,6041565.185654134
511.43815149999995,6041219.280233808
509.82039860000003,6041303.8793461835
508.2171791999999,6041230.879125723
506.628303,6041104.701734351
505.05358269999994,6041019.196254016
503.4928341,6041444.079878476
501.9458762,6041770.261722023
500.41253059999997,6041696.36987462
498.8926222,6041183.352360307
497.3859785,6041383.28612553
495.89242989999997,6040934.968791047
494.4118094,6040899.862319015
492.943953,6042021.721159012
491.488699,6039779.5489775175
490.04588839999997,6029102.243449277
488.6153648,6003957.972165419
487.19697429999997,5958583.198166323
485.7905654,5891080.10323885
484.39598889999996,5796068.086789064
483.01309800000007,5670705.286407517
481.64174840000004,5513263.679707675
480.28179789999996,5325060.373778027
478.93310639999993,5117929.930749326
477.59553619999997,4904017.306807963
476.2689517,4690928.078692227
474.9532192,4486993.084793245
473.6482074,4299407.145299778
472.35378679999997,4132921.8544568433
471.06982989999995,3991544.821506958
469.79621110000005,3874663.33303494
468.53280700000005,3774991.3283443637
467.2794956999999,3687995.1392920837
466.0361575,3608059.468894531
464.80267410000005,3531208.7556210123
463.5789295,3451634.290718014
462.364809,3366417.511236825
461.1601998,3272309.615247265
459.9649909,3173168.05255238
458.7790727,3070771.0752155073
457.6023374,2965410.95239938
456.4346788,2857483.3275299836
455.2759921,2749810.6130199
454.12617439999997,2643752.4839737965
452.9851239,2541621.456896045
451.85274060000006,2445855.2233159947
450.7289258,2354541.619726829
449.6135822,2268146.130066984
448.5066141,2186718.685987888
447.407927,2110176.83545868
446.317428,2038229.8141541325
445.23502520000005,1970033.0681875532
444.1606283,1905051.0256272329
443.0941482,1842698.2638606525
442.03549699999996,1782150.319621149
440.9845882,1723594.2889871963
439.9413364,1667415.20165278
438.9056575,1613698.5807491904
437.87746860000004,1562863.602843229
436.85668780000003,1514894.9025778228
435.8432345,1470301.7497045617
434.83702930000004,1428643.5352130556
433.83799369999997,1390578.7200943674
432.84605039999997,1354828.963872688
431.8611232,1321882.7479000858
430.8831369,1291339.3979544886
429.9120175,1262936.7139860268
428.94769169999995,1236255.391110018
427.9900874,1211334.639071173
427.03913370000004,1187703.1913744998
426.0947602,1164824.570568691
425.1568978,1142212.7006566322
424.22547829999996,1119104.602272636
423.3004343,1094401.2936641895
422.3816994,1067439.4189733746
421.4692081,1037273.9920373484
420.56289569999996,1003562.5139941536
419.66269850000003,965841.7943694096
418.7685535,924174.3191745249
417.8803987,879042.7684331954
416.9981727,831445.2820370896
416.12181519999996,782116.8476019707
415.25126639999996,732569.2339290918
414.38646760000006,683887.6628911814
413.5273605,637354.2359853233
412.673888,593722.0356167743
411.8259934,553608.818530755
410.9836208,517314.66360861156
410.14671519999996,484909.55310975394
409.3152221,455979.07998613006
408.48908789999996,430349.6088875333
407.66825960000006,407174.5517540523
406.8526847,385943.2945582768
406.0423117,366246.5033935213
405.2370896,347645.1559820629
404.43696800000004,329871.2218631461
403.64189730000004,312638.2962674381
402.8518283,295923.8960043596
402.0667126,279829.8217086731
401.28650239999996,264238.985284589
400.5111505,249324.36324706965
399.7406101,234801.0187298548
398.9748353,220706.43867251388
398.2137806,207205.7081258547
397.457401,194002.2722314552
396.7056521,181118.79643589022
395.9584903,168473.4077662705
395.2158722,155857.03631713937
394.4777551,143327.31356969927
393.7440968,131446.7111990266
393.0148555,120084.6583031677
392.2899901,109308.1531370016
391.56946,99255.34937779537
390.853225,89963.80489882264
390.1412452,81568.93110924456
389.43348169999996,74071.88823022885
388.7298955,67511.3426466175
388.03044839999995,61634.23966277125
387.3351027,56394.305140008604
386.6438209,51836.61203906709
385.95656610000003,47815.97517136031
385.2733019,44319.20445359335
384.5939922,41263.06905016172
383.9186014,38616.843694464435
383.2470943,36304.22282912581
382.5794362,34284.9129454796
381.9155926,32506.989790606865
381.2555296,30943.80791633388
380.59921360000004,29544.600583678675
379.9466115,28249.691726713296
379.29769039999996,27048.781468341134
378.652418,25917.853068571094
378.0107622,24813.06005195455
377.37269130000004,23732.42556379269
376.73817410000004,22666.501958108478
376.1071796,21596.841104527186
375.47967719999997,20537.85759961806
374.8556368,19515.27540855021
374.2350283,18519.377000316217
373.6178223,17574.13372733356
373.0039896,16668.64259352723
372.3935012,15820.532099016551
371.78632860000005,15036.364826594505
371.1824436,14304.285717133254
370.5818182,13620.088738060496
369.98442489999996,12983.21351485093
369.39023629999997,12365.211310887848
368.7992255,11775.566224810005
368.2113658,11208.640502269374
367.6266307,10665.055685759073
367.0449943,10125.494377650457
366.4664305,9598.579984863101
365.89091410000003,9090.748550385944
365.3184196,8615.760227401528
364.7489221,8160.906789193634
364.18239689999996,7738.041378178199
363.61881960000005,7352.715183325053
363.058166,6984.308970486744
362.50041219999997,6629.964403453678
361.94553460000003,6296.789180236311
361.3935098,5984.78643517487
360.8443147,5687.726530885645
360.29792630000003,5390.542103852717
359.754322,5098.877786170162
359.2134795,4820.653866379121
358.6753765,4542.466083079849
358.1399912,4282.722016877939
357.6073018,4026.1360751683337
357.077287,3781.5043953980658
356.5499253,3543.5022837556785
356.025196,3309.647397368726
355.50307799999996,3083.4831291366145
354.983551,2863.1521514151673
354.4665945,2642.6064284959225
353.95218839999995,2428.114455640301
353.4403127,2211.206173122648
352.9309478,2011.775864053189
352.42407410000004,1825.9733589776165
351.9196722,1656.000234389574
351.4177232,1502.2683677523428
350.91820789999997,1368.1661271445594
350.4211078,1255.4412999813271
349.9264043,1151.7829530617107
349.434079,1062.104079613044
348.9441137,984.4606949302826
348.45649060000005,913.5878309425057
347.97119169999996,844.4947599741593
347.48819960000003,777.7800001793833
347.0074967,711.0446916699409
346.5290657,650.3656381425308
346.0528897,576.3896194042368
345.5789517,525.7753181519848
345.1072349,464.5682581401242
344.6377228,413.15643905208987
344.17039889999995,368.125038229838
343.70524710000007,331.3552367066918
343.24225110000003,297.7370161366118
342.7813952,261.6462348102068
342.32266339999995,234.25544028084167
341.8660403,206.45154859270284
341.4115102,182.13346735788556
340.959058,164.51566061760875
340.5086685,145.57959472450287
340.06032660000005,125.17510770981278
339.6140175,113.60957129645193
339.1697264,90.516261577312
338.7274388,74.29018242847492
338.28714019999995,58.38318937116551
337.8488164,46.39418768323723
337.41245310000005,33.06679246244542
336.9780363,24.650271105693324
336.5455522,14.961091144746867
336.114987,13.209768337586192
335.686327,6.036795256633526
335.2595588,4.787613741152873
334.834669,0.8974075721606438
334.4116443,-0.12798201000051393
333.9904716,-1.9671306282353045
333.57113799999996,-4.041166817150646
333.1536305,2.9656712412984207
332.73793639999997,0.9789757797985305
332.32404310000004,2.5240950253603662
331.91193799999996,-3.581479616402322
331.5016088,-2.4814736899144485
331.0930432,0.8724189062471969
330.6862289,-0.1501986839266717
330.281154,-3.270165004894624
329.8778065,-1.7995441409877444
329.47617460000004,0.5206850464992455
329.07624649999997,0.8532829973435152
328.6780106,-2.3002035720832947
328.2814555,6.345449799318272
327.88656960000003,-0.7384476070378748
327.4933418,0.3631767611227169
327.1017607,0.26558191204004816
326.7118154,-3.848648377578346
326.32349480000005,1.5526349499662928
325.93678789999996,-1.894539536186724
325.5516841,0.7820265670424721
325.16817260000005,-2.59317554472622
324.7862428,-1.223005175072714
324.40588419999995,1.9716279030844308
324.0270864,-0.2157284474572667
323.649839,-2.3052424477121223
323.2741319,4.4570524672855205
322.8999548,3.4674155554943265
322.5272977,-1.933150749501348
322.1561508,-1.9520025545806543
321.786504,4.4582801747434
321.4183476,2.05880823497374
321.0516719,-0.4648627964316354
320.6864673,0.3707448657011412
320.3227243,-1.914787441562968
319.96043330000003,-2.8165382211998065
319.5995851,1.6318140942612354
319.2401704,-1.6746161675624118
318.8821799,1.023998565212608
318.5256045,1.3348801337818994
318.1704352,2.2838316927534548
317.8166631,-1.8007362507587807
317.4642791,0.3795532502746575
317.1132746,1.8106708153920141
316.76364069999994,0.18971927710478412
316.4153688,0.026912243652217928
316.06845039999996,-3.893928763226942
315.72287689999996,2.1870298784583437
315.37863980000003,-0.6824976050471567
315.0357308,1.066102618722864
314.6941415,-0.20281122993059067
314.3538639,-1.3125361658708834
314.0148896,-0.30278226398185804
313.6772106,0.4072065617276718
313.3408189,-0.7459629858626692
313.00570639999995,5.0129443801573315
312.67186549999997,-0.02429460517935237
312.33928810000003,-0.16053936242829578
312.0079665,-1.3931718639840385
311.6778931,0.7600347352099338
311.34906010000003,2.923136988631861
311.0214601,0.4582550730704523
310.6950856,-2.4484284055182464
310.369929,-5.430012730294495
310.04598300000004,-4.604240530967219
309.7232403,-1.6817605705018954
309.4016935,2.19907121364682
309.0813356,0.7335631236560378
308.7621594,0.08485632685318728
308.4441577,1.2569752914361736
308.1273236,2.833266329766137
307.8116501,-4.771521779470715
307.49713019999996,-6.122612911435777
307.18375710000004,0.7599795023236021
306.871524,-0.2408047308267967
306.5604242,-0.3316314666242449
306.2504509,-1.7857674493954034
