wave,flux
1817.164934,3.772983004522959
1790.1022050000001,6.1936779558797035
1763.812741,10.486887156476381
1738.2646949999998,29.25258172223659
1713.427949,120.49963687243506
1689.273995,288.8213237706541
1665.7758310000002,674.8040559936221
1642.907862,1315.8392611453532
1620.64581,2295.123343635329
1598.9666300000001,3643.171898661184
1577.8484310000001,5470.423971064299
1557.270407,7811.4031865773795
1537.212767,10616.401605628524
1517.65668,13929.327959891652
1498.5842089999999,17651.914795148678
1479.978265,21652.16630324905
1461.822555,25893.282768839923
1444.101535,30277.2577557648
1426.800368,34803.68333691067
1409.904887,39355.13950405877
1393.401553,43798.246549434574
1377.2774220000001,48231.21867724425
1361.520115,52620.89561208311
1346.117782,56912.30346793769
1331.059081,61228.37967726588
1316.3331449999998,65463.711204405154
1301.92956,69721.47366655496
1287.838342,73947.38218394386
1274.049912,78276.25175619482
1260.5550779999999,82537.32030887541
1247.345017,86817.62515967504
1234.4112519999999,91215.77639192792
1221.74564,95676.71206604168
1209.340352,100063.39300885962
1197.187859,104628.38292705244
1185.28092,109162.85979025932
1173.612564,113726.29095245051
1162.1760800000002,118320.29803131518
1150.9650060000001,122916.75018148648
1139.973115,127561.31550265716
1129.194406,132149.6363314059
1118.623093,136742.84555671446
1108.253594,141338.03313810154
1098.0805269999998,145897.1223997178
1088.098695,150602.40540559
1078.303081,155082.9003511576
1068.688841,159652.38786693962
1059.251295,164355.46986530782
1049.9859199999999,169087.47289316787
1040.8883449999998,174257.7909528328
1031.9543429999999,179382.25097256692
1023.1798259999999,185295.66553647906
1014.5608390000001,191398.05486928747
1006.0935529999999,197985.86532603775
997.774265,205242.91022759018
989.5993858999999,213048.67895032334
981.5654412999999,221250.36628739163
973.6690651,229854.46943512378
965.9069952,238980.81389839202
958.2760697000001,248471.87219347004
950.7732231000001,258094.89788437678
943.3954827,267731.1628132015
936.1399648,277488.006194861
929.0038716,287156.0407636363
921.9844879000001,296820.6204548973
915.0791782,306297.5905329203
908.2853836000002,315678.6688626181
901.6006193,324967.91055530467
895.0224714,334184.14314718795
888.548595,343602.3519963589
882.1767113,353659.9327149207
875.9046055,364281.4993207612
869.7301242999998,375265.91269941797
863.6511742999999,387300.6906357081
857.6657193,400902.639912573
851.7717787,416076.3929993974
845.9674256000001,433847.44350293983
840.2507849,452282.4857148354
834.6200316000001,474877.6171420933
829.0733892000001,500069.896513246
823.6091279,529129.9433806029
818.2255633999999,562086.5907831886
812.9210552000001,598785.8502865195
807.694005,639947.5701533415
802.5428559,685402.5437176976
797.4660904,733674.5269852941
792.4622299,786119.5594918864
787.5298327,844795.4869093052
782.6674933999999,910022.9332609948
777.8738417999999,981602.7323782387
773.1475413,1062838.8251470223
768.4872882999999,1160382.4049642282
763.8918112000001,1275300.3266818866
759.3598692,1410242.2738641454
754.8902515999999,1571448.6852407837
750.4817767999999,1762375.8200912816
746.1332914,1980019.763830006
741.8436694000001,2234057.7780203307
737.6118116,2508201.924014362
733.4366444,2810939.416103292
729.3171195,3133670.4485478792
725.2522127999999,3473384.638527415
721.2409241,3816930.5193482167
717.282276,4160621.9270819332
713.3753136,4491503.082197705
709.5191037000001,4803539.679321313
705.7127343,5084899.998148948
701.9553139,5336260.940822414
698.2459709,5547080.294853789
694.5838534,5708335.158382631
690.9681281000001,5832923.508797172
687.3979803,5921610.4501609625
683.8726131,5981160.261565179
680.3912472999999,6017655.728099636
676.9531202000001,6036689.6747263465
673.557486,6043517.183457535
670.2036149,6040563.486897045
666.8907926,6040408.479946601
663.6183202999999,6041596.989721283
660.3855139,6040496.598827011
657.1917038,6040055.103132088
654.0362346,6040785.371812761
650.9184646000001,6040000.200732665
647.8377654,6042672.448349847
644.7935217999999,6040542.926937591
641.7851312999999,6040891.119766701
638.8120038,6041850.570167722
635.8735614,6040440.264535774
632.9692378999999,6040963.075953394
630.0984786,6041550.332014874
627.2607402000001,6043376.70393228
624.4554901,6041877.493748406
621.6822068,6040274.597421361
618.940379,6041304.450132473
616.2295054,6042034.439921778
613.549095,6041256.138019662
610.8986664,6041445.990752674
608.2777476,6041465.199281605
605.6858758999999,6041304.65292426
603.1225977000001,6041540.834079198
600.5874682,6040844.967695228
598.0800512,6041212.606711173
595.5999188999999,6041440.8260930525
593.1466518,6041459.392948736
590.7198384999999,6041556.997883477
588.3190752,6041086.627004795
585.943966,6041255.774068696
583.5941226,6041486.639331552
581.2691637,6041417.752333342
578.9687155,6041746.883779074
576.692411,6041295.368941423
574.4398902,6041615.079382125
572.2107997,6041740.25040811
570.0047927,6040817.380704703
567.8215287,6041312.736750198
565.6606737000001,6041907.254971411
563.5218996,6041378.934447822
561.4048845,6041730.404123189
559.3093121,6041273.783226263
557.2348721,6041348.740387816
555.1812597,6041532.522441781
553.1481756000001,6041428.507729038
551.1353259,6042017.753925734
549.1424218999999,6041113.694937022
547.1691801,6041657.18129175
545.2153222000001,6040947.96067168
543.2805745000001,6041222.43185509
541.3646685,6041103.959848272
539.46734,6041389.3070938215
537.5883299,6041569.03622728
535.7273833,6041327.860829777
533.8842498,6041488.556079922
532.0586836,6041551.476234392
530.2504428000001,6041745.195187781
528.45929,6041334.468198243
526.6849915,6041478.54561556
524.927318,6041044.9913957985
523.186044,6041489.177257309
521.4609475999999,6041641.746528429
519.7518110000001,6041417.636169133
518.0584200000001,6041369.6858797325
516.3805639,6041450.937771347
514.7180356,6041329.232418963
513.0706316000001,6041398.442403879
511.43815149999995,6041556.982532869
509.82039860000003,6041273.5263568135
508.2171791999999,6041124.020447605
506.628303,6041236.373313975
505.05358269999994,6041362.172554223
503.4928341,6041721.0903551085
501.9458762,6041336.112964517
500.41253059999997,6041079.316086412
498.8926222,6041444.12903862
497.3859785,6041132.784594627
495.89242989999997,6041453.855566615
494.4118094,6041338.302036183
492.943953,6041447.9901863765
491.488699,6041786.890801425
490.04588839999997,6041690.451080285
488.6153648,6041551.788724353
487.19697429999997,6041142.353860011
485.7905654,6041167.861293525
484.39598889999996,6041448.148134756
483.01309800000007,6041524.0758752925
481.64174840000004,6041569.224437846
480.28179789999996,6041874.3883203175
478.93310639999993,6041177.9737648675
477.59553619999997,6041132.33982731
476.2689517,6041552.733894197
474.9532192,6041420.654980096
473.6482074,6041656.166170646
472.35378679999997,6041151.066834442
471.06982989999995,6041649.642237566
469.79621110000005,6041416.417103033
468.53280700000005,6041558.212799404
467.2794956999999,6041197.615597287
466.0361575,6037677.562716748
464.80267410000005,6027617.214254232
463.5789295,6007862.5776720075
462.364809,5977045.3878271235
461.1601998,5930234.656674155
459.9649909,5868099.648396493
458.7790727,5785380.059852994
457.6023374,5682725.58149362
456.4346788,5562129.8548653815
455.2759921,5428123.397930192
454.12617439999997,5283381.975700914
452.9851239,5130553.95057286
451.85274060000006,4973438.040263302
450.7289258,4813307.25996141
449.6135822,4652661.522792251
448.5066141,4493941.889609573
447.407927,4336074.6963850325
446.317428,4179092.2803286863
445.23502520000005,4022517.2428583433
444.1606283,3866839.810793797
443.0941482,3712203.484863962
442.03549699999996,3559789.026736617
440.9845882,3409492.444961879
439.9413364,3262425.835427509
438.9056575,3118838.1248077382
437.87746860000004,2979799.9321201174
436.85668780000003,2845230.4813190238
435.8432345,2715452.8143816157
434.83702930000004,2591173.9859712245
433.83799369999997,2473129.519555293
432.84605039999997,2360508.841361991
431.8611232,2254952.8001772184
430.8831369,2155908.6410194263
429.9120175,2064172.2283845432
428.94769169999995,1980049.586789457
427.9900874,1902734.7576839544
427.03913370000004,1832804.032760418
426.0947602,1769222.7421599824
425.1568978,1711396.8358845252
424.22547829999996,1658208.763347059
423.3004343,1608745.0509539638
422.3816994,1562695.6197780014
421.4692081,1518295.8449532988
420.56289569999996,1475153.6759559957
419.66269850000003,1433064.3837868643
418.7685535,1391755.1114484954
417.8803987,1350936.4244680563
416.9981727,1311115.9700878498
416.12181519999996,1272421.8373678734
415.25126639999996,1234670.891981575
414.38646760000006,1198374.3297871915
413.5273605,1163458.7971296802
412.673888,1129928.8562653032
411.8259934,1097875.6323096536
410.9836208,1067223.0826316692
410.14671519999996,1037525.8276738955
409.3152221,1008821.0587566777
408.48908789999996,981348.3847034195
407.66825960000006,954728.924083923
406.8526847,928915.1064457076
406.0423117,903987.9172547013
405.2370896,879773.1220561792
404.43696800000004,856130.0420954268
403.64189730000004,832799.9799788293
402.8518283,809616.6123131369
402.0667126,786304.9336345444
401.28650239999996,762475.5563052325
400.5111505,737697.2418970823
399.7406101,711816.8178092038
398.9748353,684551.5377628782
398.2137806,655594.0437614955
397.457401,624886.945705026
396.7056521,592313.1716974088
395.9584903,558189.9215948135
395.2158722,522517.14908297756
394.4777551,485713.7125262768
393.7440968,448279.7484060439
393.0148555,410647.7797829722
392.2899901,373353.07049485226
391.56946,337134.615005194
390.853225,302454.9406973903
390.1412452,269798.2913802677
389.43348169999996,239598.637725218
388.7298955,212146.52354909485
388.03044839999995,187679.30347973187
387.3351027,166133.69685995733
386.6438209,147524.2438093516
385.95656610000003,131617.64693269556
385.2733019,118193.96171774408
384.5939922,106924.51382874088
383.9186014,97544.40919582838
383.2470943,89677.21683782904
382.5794362,83104.53636177795
381.9155926,77514.90158312306
381.2555296,72696.39567458992
380.59921360000004,68457.10660522923
379.9466115,64715.70084428693
379.29769039999996,61298.816006560075
378.652418,58193.213392783546
378.0107622,55272.45487884885
377.37269130000004,52581.42122409072
376.73817410000004,50052.826580520974
376.1071796,47687.163822690236
375.47967719999997,45471.2480876471
374.8556368,43396.511329517794
374.2350283,41434.93336778539
373.6178223,39572.96513740205
373.0039896,37796.812670204
372.3935012,36125.033431068114
371.78632860000005,34515.95574700515
371.1824436,32942.767623892854
370.5818182,31424.680373049
369.98442489999996,29938.891767281188
369.39023629999997,28502.86715726866
368.7992255,27142.189095071768
368.2113658,25796.534298674047
367.6266307,24512.0973361444
367.0449943,23267.870403141387
366.4664305,22085.696477640504
365.89091410000003,20945.190055980893
365.3184196,19872.128353921096
364.7489221,18828.80837249014
364.18239689999996,17839.76677275692
363.61881960000005,16890.523731520476
363.058166,15988.6779701631
362.50041219999997,15139.509806521919
361.94553460000003,14324.436191157958
361.3935098,13553.577560400568
360.8443147,12834.7796032573
360.29792630000003,12151.161163199275
359.754322,11502.996485414174
359.2134795,10895.807482899732
358.6753765,10325.435090198896
358.1399912,9793.209080908411
357.6073018,9298.73065623861
357.077287,8825.029908538383
356.5499253,8375.738231547806
356.025196,7949.646948116754
355.50307799999996,7538.310773211586
354.983551,7148.3025503673925
354.4665945,6767.535479003101
353.95218839999995,6411.376756089978
353.4403127,6077.032985538888
352.9309478,5745.803310719953
352.42407410000004,5444.908604691504
351.9196722,5155.3493747975535
351.4177232,4884.1981975028975
350.91820789999997,4621.875606253876
350.4211078,4378.240107816491
349.9264043,4142.077903628414
349.434079,3913.737215930155
348.9441137,3688.000209635449
348.45649060000005,3470.821316565125
347.97119169999996,3254.3264137543465
347.48819960000003,3046.7883320320348
347.0074967,2847.6853999388923
346.5290657,2651.9654264495707
346.0528897,2467.87159690982
345.5789517,2294.9714164017896
345.1072349,2124.3453204386974
344.6377228,1970.9536007493066
344.17039889999995,1819.8291292430483
343.70524710000007,1672.7456952191285
343.24225110000003,1531.9739379746177
342.7813952,1387.0408316559344
342.32266339999995,1256.2306090714246
341.8660403,1119.128461040034
341.4115102,995.3160014396612
340.959058,868.0771043653509
340.5086685,750.9722920413486
340.06032660000005,645.1062562200742
339.6140175,535.6739132290077
339.1697264,442.17100540811117
338.7274388,361.4987586072408
338.28714019999995,282.55101680984404
337.8488164,213.89489258260102
337.41245310000005,154.07406347033822
336.9780363,104.33197380595834
336.5455522,66.97617972321501
336.114987,46.8048545019871
335.686327,22.088505532011126
335.2595588,11.031770272292574
334.834669,3.2203428636413047
334.4116443,0.6580176395189219
333.9904716,-4.571076544055164
333.57113799999996,-2.509231090125938
333.1536305,3.294189312506328
332.73793639999997,0.9112387236694758
332.32404310000004,1.1271811492028696
331.91193799999996,4.678361900888532
331.5016088,1.0630295861848027
331.0930432,2.036349284627909
330.6862289,-3.359568739455173
330.281154,1.4492586657400466
329.8778065,-0.7998803544744189
329.47617460000004,-1.9712044212044335
329.07624649999997,0.15689144402171848
328.6780106,-1.0006729448622935
328.2814555,3.115722694705896
327.88656960000003,0.6672336828260399
327.4933418,-3.6206534225406184
327.1017607,1.4492353384922734
326.7118154,0.4305676634456326
326.32349480000005,2.671985642387808
325.93678789999996,-2.9035819128220917
325.5516841,0.3883386672320551
325.16817260000005,-0.15014845492836865
324.7862428,1.4881941765234994
324.40588419999995,1.285772302039347
324.0270864,0.4762320224797307
323.649839,-0.7084943558302925
323.2741319,1.331834831112126
322.8999548,0.4168325248361459
322.5272977,-2.767884188588886
322.1561508,0.13725377148395526
321.786504,0.2402559663428616
321.4183476,-1.5568100584196556
321.0516719,-2.6041681709288387
320.6864673,4.75464584320008
320.3227243,-0.8730229414703433
319.96043330000003,0.702661861145808
319.5995851,-3.2332872115344604
319.2401704,-0.8332519169235364
318.8821799,-4.615679540831367
318.5256045,2.6492523641066184
318.1704352,-1.2581945540993211
317.8166631,0.666853943697713
317.4642791,-2.7202874818581324
317.1132746,-1.2477850714832666
316.76364069999994,-2.4792717325457603
316.4153688,-2.5947856478647795
316.06845039999996,1.836264945493828
315.72287689999996,-2.9104985757303274
315.37863980000003,1.8317007484569527
315.0357308,-1.429718640442904
314.6941415,-2.813999768559602
314.3538639,-3.0345933241247707
314.0148896,2.0575223830208578
313.6772106,2.1732223651793117
313.3408189,-2.7176990871056503
313.00570639999995,-2.883279837825532
312.67186549999997,-6.327370594093125
312.33928810000003,-1.227731284763106
312.0079665,3.786709505924576
311.6778931,2.325207289542035
311.34906010000003,-3.1005770230597127
311.0214601,-2.272756844853229
310.6950856,2.1574097528984013
310.369929,1.2009261894431644
310.04598300000004,0.35788837697023723
309.7232403,1.1687289507223944
309.4016935,-1.446084910287356
309.0813356,0.31643322307104826
308.7621594,1.1115523516475765
308.4441577,2.56280772636102
308.1273236,-0.10795139118895844
307.8116501,0.1912677667147864
307.49713019999996,-1.7348738885571156
307.18375710000004,-3.6423120481614135
306.871524,-0.01748200139200207
306.5604242,4.052926669813431
306.2504509,-2.7823394669219894
