wave,flux
1817.164934,7.72811057176216
1790.1022050000001,5.04147953132164
1763.812741,0.381269206850746
1738.2646949999998,17.545618040407163
1713.427949,89.53056827426748
1689.273995,355.1141677262394
1665.7758310000002,1207.5094773667736
1642.907862,2753.2297707085686
1620.64581,4902.124043447954
1598.9666300000001,7810.316906407579
1577.8484310000001,11419.674999485725
1557.270407,15803.681616908929
1537.212767,21008.884666653365
1517.65668,26617.149832901698
1498.5842089999999,32123.80798159356
1479.978265,37429.767908862836
1461.822555,42477.59963552448
1444.101535,47239.609839610384
1426.800368,51700.55955712943
1409.904887,55826.77017993172
1393.401553,59419.13706235298
1377.2774220000001,62858.102051036316
1361.520115,66248.33823984215
1346.117782,69590.48025388044
1331.059081,72924.35044553147
1316.3331449999998,76290.1505195563
1301.92956,79737.63015379026
1287.838342,83123.17569875495
1274.049912,86444.42289119387
1260.5550779999999,89932.73011615947
1247.345017,93289.7725302125
1234.4112519999999,96732.3172629534
1221.74564,100195.80122542515
1209.340352,103597.9394860499
1197.187859,107059.36857372707
1185.28092,110609.74252140752
1173.612564,114192.51393595613
1162.1760800000002,117761.221356814
1150.9650060000001,121234.72479944456
1139.973115,124899.48043109088
1129.194406,128556.75354576868
1118.623093,132097.84222155935
1108.253594,135697.9501307481
1098.0805269999998,139403.09031923758
1088.098695,142933.50746274882
1078.303081,146623.7693425308
1068.688841,150450.26511884475
1059.251295,154438.06732224138
1049.9859199999999,158811.83935118598
1040.8883449999998,163722.86499898494
1031.9543429999999,169179.11465970002
1023.1798259999999,175463.03735929806
1014.5608390000001,182468.71357065288
1006.0935529999999,190450.9657739794
997.774265,199262.34434849164
989.5993858999999,208768.76358144352
981.5654412999999,218681.79620550407
973.6690651,228944.7216220286
965.9069952,239306.32182155753
958.2760697000001,249494.42904324183
950.7732231000001,259182.23951359978
943.3954827,268469.4957997139
936.1399648,277178.8016203883
929.0038716,285233.215272556
921.9844879000001,292531.3861440709
915.0791782,299256.9615384244
908.2853836000002,305874.797840136
901.6006193,312034.2405652366
895.0224714,318589.85073611396
888.548595,325835.8355706996
882.1767113,334033.48467702285
875.9046055,343377.10755432927
869.7301242999998,355349.34629005805
863.6511742999999,368564.0369666553
857.6657193,384934.3933548935
851.7717787,404420.600357174
845.9674256000001,427980.756042609
840.2507849,457363.81998439616
834.6200316000001,491563.3777278379
829.0733892000001,531648.1171144622
823.6091279,579194.4122434172
818.2255633999999,632292.9736222079
812.9210552000001,690528.7928593414
807.694005,754320.9360132328
802.5428559,821192.5261414944
797.4660904,889801.9450228709
792.4622299,960576.7818420513
787.5298327,1033146.7242414998
782.6674933999999,1113642.6140531788
777.8738417999999,1206358.9526434666
773.1475413,1315487.2907675926
768.4872882999999,1448990.2184198352
763.8918112000001,1619126.7887349539
759.3598692,1827973.8713962391
754.8902515999999,2084926.4864187725
750.4817767999999,2384113.296116515
746.1332914,2725679.3451144
741.8436694000001,3100446.200311911
737.6118116,3501309.8242208282
733.4366444,3905258.211943908
729.3171195,4295122.909284917
725.2522127999999,4667031.273468532
721.2409241,4995485.296748267
717.282276,5277741.293140137
713.3753136,5510544.660851709
709.5191037000001,5689066.099466957
705.7127343,5823409.084829077
701.9553139,5911814.418879773
698.2459709,5974993.179935457
694.5838534,6006511.665489105
690.9681281000001,6030123.985433073
687.3979803,6034684.486825372
683.8726131,6040936.578906699
680.3912472999999,6040842.300150593
676.9531202000001,6043241.7622098625
673.557486,6043190.597728069
670.2036149,6044523.838420423
666.8907926,6043144.1808617925
663.6183202999999,6041966.374684122
660.3855139,6042654.248697207
657.1917038,6041854.414324523
654.0362346,6040137.419460757
650.9184646000001,6042712.096137422
647.8377654,6042575.073200086
644.7935217999999,6041687.696910125
641.7851312999999,6042480.846919067
638.8120038,6043317.950013978
635.8735614,6041173.179601177
632.9692378999999,6041578.939287633
630.0984786,6041919.694560693
627.2607402000001,6037978.786636435
624.4554901,6039751.2463861015
621.6822068,6042808.104902867
618.940379,6041667.69735198
616.2295054,6041723.79696624
613.549095,6041320.056954352
610.8986664,6041616.025769157
608.2777476,6041555.835579222
605.6858758999999,6041119.231892852
603.1225977000001,6041359.147984672
600.5874682,6040688.480337823
598.0800512,6041629.458492745
595.5999188999999,6040937.774050723
593.1466518,6041320.601497901
590.7198384999999,6041313.792610793
588.3190752,6041792.238800737
585.943966,6041707.751824195
583.5941226,6041375.826732713
581.2691637,6041212.680931345
578.9687155,6041223.367536808
576.692411,6041233.57306649
574.4398902,6040875.383516361
572.2107997,6041913.911819503
570.0047927,6041624.98440807
567.8215287,6041151.666318647
565.6606737000001,6041612.959432699
563.5218996,6041263.937894725
561.4048845,6041567.102709241
559.3093121,6041166.639412892
557.2348721,6041435.209951841
555.1812597,6041089.887834272
553.1481756000001,6041125.086798867
551.1353259,6041396.46894209
549.1424218999999,6041549.0698675215
547.1691801,6041258.281765919
545.2153222000001,6041829.254742359
543.2805745000001,6041491.150009167
541.3646685,6041687.250117402
539.46734,6041538.672504428
537.5883299,6041529.387598401
535.7273833,6041310.563360098
533.8842498,6041784.31143114
532.0586836,6041173.182532921
530.2504428000001,6041477.944714251
528.45929,6041577.721286566
526.6849915,6041711.24169544
524.927318,6041415.998956282
523.186044,6041169.337881988
521.4609475999999,6041310.524714221
519.7518110000001,6041105.852374072
518.0584200000001,6041562.829864087
516.3805639,6041332.365790566
514.7180356,6041660.352121665
513.0706316000001,6041865.084085416
511.43815149999995,6041555.466292061
509.82039860000003,6041361.063226836
508.2171791999999,6041261.738896538
506.628303,6041164.330101504
505.05358269999994,6041754.759368492
503.4928341,6041661.996967505
501.9458762,6041273.240838807
500.41253059999997,6042158.107552935
498.8926222,6041364.049089944
497.3859785,6041530.152869595
495.89242989999997,6041962.785478878
494.4118094,6041574.575689775
492.943953,6041419.321634837
491.488699,6041662.949542725
490.04588839999997,6041364.449231192
488.6153648,6041354.74248965
487.19697429999997,6041409.105368389
485.7905654,6041401.623426576
484.39598889999996,6041285.655515944
483.01309800000007,6041458.765166262
481.64174840000004,6041327.092334399
480.28179789999996,6041752.389055635
478.93310639999993,6041606.511746965
477.59553619999997,6041674.579275503
476.2689517,6041267.023215302
474.9532192,6041532.079531653
473.6482074,6041567.446542614
472.35378679999997,6041513.23780274
471.06982989999995,6041468.927277887
469.79621110000005,6041801.5334138675
468.53280700000005,6041421.725539657
467.2794956999999,6041414.809507422
466.0361575,6041758.402216857
464.80267410000005,6041374.516550512
463.5789295,6039943.226829693
462.364809,6032030.739179426
461.1601998,6013100.22903688
459.9649909,5980903.225181012
458.7790727,5931910.69281284
457.6023374,5863004.004341877
456.4346788,5772773.735164838
455.2759921,5657346.069597428
454.12617439999997,5519029.967002736
452.9851239,5365279.230821691
451.85274060000006,5202157.101507098
450.7289258,5034462.584703737
449.6135822,4867728.778508182
448.5066141,4706188.629430634
447.407927,4554661.997276412
446.317428,4416852.565304603
445.23502520000005,4294625.931846877
444.1606283,4187988.5065455465
443.0941482,4096557.841329829
442.03549699999996,4019495.830054287
440.9845882,3955345.5776152387
439.9413364,3901329.7385226386
438.9056575,3854683.3815138983
437.87746860000004,3810554.414561587
436.85668780000003,3765248.09320118
435.8432345,3713271.8998222593
434.83702930000004,3650780.529866308
433.83799369999997,3574639.3223311235
432.84605039999997,3483351.685111004
431.8611232,3376898.3647549236
430.8831369,3257140.830744495
429.9120175,3127157.1266375994
428.94769169999995,2990840.030215857
427.9900874,2852638.231808916
427.03913370000004,2716073.8395669293
426.0947602,2585119.0472218418
425.1568978,2461710.8345698514
424.22547829999996,2348409.522096936
423.3004343,2245202.293324125
422.3816994,2152376.6827469305
421.4692081,2069738.7012464625
420.56289569999996,1996279.305423333
419.66269850000003,1930626.44203862
418.7685535,1872153.7150833432
417.8803987,1819583.622919643
416.9981727,1771897.6406277984
416.12181519999996,1728026.3224347688
415.25126639999996,1687072.600409631
414.38646760000006,1648163.166978513
413.5273605,1610315.3195559045
412.673888,1572994.645686532
411.8259934,1535455.7057897071
410.9836208,1496915.8253811959
410.14671519999996,1456962.0087706663
409.3152221,1415250.3033359528
408.48908789999996,1371303.3046571726
407.66825960000006,1325365.5698752608
406.8526847,1277384.7962556584
406.0423117,1227780.2314167786
405.2370896,1177302.7538119492
404.43696800000004,1126369.427974906
403.64189730000004,1075840.702752045
402.8518283,1026176.3693985912
402.0667126,977917.2677911972
401.28650239999996,931540.5024756315
400.5111505,886965.7975366075
399.7406101,843047.624205827
398.9748353,799421.4542047939
398.2137806,755799.1000447988
397.457401,711245.9660780566
396.7056521,665612.5776091628
395.9584903,618665.3348925943
395.2158722,570098.4337874638
394.4777551,520282.4100751387
393.7440968,471702.1051987979
393.0148555,424827.5234949133
392.2899901,379780.9456369241
391.56946,338034.70003148104
390.853225,299850.13510476856
390.1412452,265620.22932877607
389.43348169999996,235691.43732804665
388.7298955,210102.92564452768
388.03044839999995,187631.03765312443
387.3351027,168222.60450293994
386.6438209,151944.32341688024
385.95656610000003,138018.74776025215
385.2733019,126336.01086084386
384.5939922,116483.29810087204
383.9186014,108135.04847400472
383.2470943,100911.40865083502
382.5794362,94664.09793553704
381.9155926,89178.43394902018
381.2555296,84131.86787394702
380.59921360000004,79497.72683374616
379.9466115,75098.0616489538
379.29769039999996,70905.77924006102
378.652418,66896.92606430149
378.0107622,63205.271707276035
377.37269130000004,59826.232865313876
376.73817410000004,56729.516148618626
376.1071796,53902.62257701834
375.47967719999997,51332.08249686116
374.8556368,48980.73532102789
374.2350283,46847.75352249179
373.6178223,44911.189919130564
373.0039896,43042.234015155744
372.3935012,41238.96264937073
371.78632860000005,39475.666443551
371.1824436,37781.84353636851
370.5818182,36126.551345062704
369.98442489999996,34513.867974740264
369.39023629999997,32958.7985273074
368.7992255,31446.70518447252
368.2113658,29984.14939401165
367.6266307,28572.673276260077
367.0449943,27230.490623812035
366.4664305,25951.41849734505
365.89091410000003,24729.957478303444
365.3184196,23545.670629628086
364.7489221,22426.516266215567
364.18239689999996,21319.074422932106
363.61881960000005,20232.283141686483
363.058166,19159.29558150941
362.50041219999997,18106.934875835803
361.94553460000003,17057.903547520167
361.3935098,16049.344364027716
360.8443147,15046.768908341533
360.29792630000003,14082.660463150107
359.754322,13184.146192577959
359.2134795,12353.66206842519
358.6753765,11592.969397792163
358.1399912,10902.162093654688
357.6073018,10266.928021712187
357.077287,9699.363898086882
356.5499253,9172.719034165944
356.025196,8687.191228012673
355.50307799999996,8247.060293265415
354.983551,7811.887660252089
354.4665945,7398.204969920644
353.95218839999995,7009.149213849622
353.4403127,6638.94422708019
352.9309478,6287.583902341168
352.42407410000004,5948.155213056223
351.9196722,5632.128649348011
351.4177232,5318.849354440255
350.91820789999997,5023.900995901735
350.4211078,4748.81699441068
349.9264043,4462.205159053827
349.434079,4181.229492456186
348.9441137,3907.451725359123
348.45649060000005,3630.416192456516
347.97119169999996,3359.4092678582533
347.48819960000003,3088.6327906226534
347.0074967,2829.7140050682674
346.5290657,2575.399327989336
346.0528897,2339.5478341530443
345.5789517,2116.594005890495
345.1072349,1915.84307821918
344.6377228,1734.5280560400124
344.17039889999995,1565.8397156936544
343.70524710000007,1411.1447701032428
343.24225110000003,1275.4920610012534
342.7813952,1147.4225411074765
342.32266339999995,1028.8595713535137
341.8660403,915.6744692479871
341.4115102,805.8066765437676
340.959058,700.9719117210577
340.5086685,601.812358705877
340.06032660000005,508.27754918482367
339.6140175,421.12461264063234
339.1697264,333.0616328472568
338.7274388,260.70516996764684
338.28714019999995,194.19226194207732
337.8488164,143.19554803618868
337.41245310000005,99.77709453397463
336.9780363,57.18503352287616
336.5455522,36.62705713876007
336.114987,20.081765549432916
335.686327,8.399335793526847
335.2595588,0.8561521955655413
334.834669,1.1397605418259102
334.4116443,0.11909961956990822
333.9904716,-2.667043312282851
333.57113799999996,2.56822602364393
333.1536305,-1.8267710089281128
332.73793639999997,0.7010056885927421
332.32404310000004,-2.8717301198570526
331.91193799999996,0.320675906735695
331.5016088,2.209079764473114
331.0930432,-2.3715161854680784
330.6862289,-0.9369712885667494
330.281154,3.7992397130602416
329.8778065,4.359796998018272
329.47617460000004,-2.573540119138729
329.07624649999997,-4.11626744933988
328.6780106,0.4508783308810045
328.2814555,2.720102364523567
327.88656960000003,3.743813429572822
327.4933418,1.9640487401866675
327.1017607,0.8707484637934775
326.7118154,0.5923767785788331
326.32349480000005,1.4588744892873864
325.93678789999996,-4.688617512015374
325.5516841,2.725248956035849
325.16817260000005,-2.9701385427749893
324.7862428,1.4369185197605094
324.40588419999995,3.267794716233477
324.0270864,0.21955197612963587
323.649839,-1.8716695681649282
323.2741319,-3.9625132544438686
322.8999548,0.8353497853162826
322.5272977,1.0146778864411474
322.1561508,-0.006176595584190728
321.786504,-3.033774713819911
321.4183476,-0.7774781739191068
321.0516719,3.951227353216027
320.6864673,-1.1729401220519204
320.3227243,0.3379305942136459
319.96043330000003,0.5346915545851871
319.5995851,0.2608517877786024
319.2401704,0.18060683984598186
318.8821799,-2.687318765583373
318.5256045,-1.7387604587533316
318.1704352,-0.500866265714398
317.8166631,-0.9939932362205054
317.4642791,0.13399764420611626
317.1132746,1.8589801069278469
316.76364069999994,-3.1079245540802365
316.4153688,3.5177231621487874
316.06845039999996,3.0212814607035523
315.72287689999996,1.994458132516168
315.37863980000003,-0.21246818430429484
315.0357308,-3.0865498649716168
314.6941415,-3.3096665144746806
314.3538639,-1.3700556852274608
314.0148896,-1.5396686895540292
313.6772106,1.4333748732455776
313.3408189,-0.10512883479724587
313.00570639999995,-3.5321452561918854
312.67186549999997,2.803637078970358
312.33928810000003,0.16798208926435654
312.0079665,-1.3920017283800414
311.6778931,-2.0294600381100905
311.34906010000003,0.35796728884603746
311.0214601,3.412680785063659
310.6950856,6.562066927169031
310.369929,3.0256118594532584
310.04598300000004,-2.1184808617860544
309.7232403,-1.1672639190758118
309.4016935,5.266908415986034
309.0813356,-0.9178078321470341
308.7621594,4.596042340628206
308.4441577,-5.347352444799343
308.1273236,0.8952528769961223
307.8116501,-3.656605792756254
307.49713019999996,-3.809115090223647
307.18375710000004,-2.7489306419454413
306.871524,2.9093373166801912
306.5604242,0.6163968263003947
306.2504509,-0.4556419231230015
