wave,flux
1817.164934,-5.0881096413393205
1790.1022050000001,15.021864867858447
1763.812741,-3.586328301287942
1738.2646949999998,93.99681296712
1713.427949,409.72002641661237
1689.273995,1477.6948062079684
1665.7758310000002,4815.231602729037
1642.907862,10819.633656945449
1620.64581,19618.01279706056
1598.9666300000001,31259.070999125597
1577.8484310000001,46341.764554575086
1557.270407,64350.59122754126
1537.212767,85781.52405739472
1517.65668,109317.95312564207
1498.5842089999999,132660.44624964913
1479.978265,155458.20065228257
1461.822555,176898.30435880853
1444.101535,196928.8813845348
1426.800368,215719.1193619647
1409.904887,232469.4915193305
1393.401553,247444.5223463481
1377.2774220000001,260700.86115175212
1361.520115,273480.33176545304
1346.117782,285564.182817697
1331.059081,297790.3535381442
1316.3331449999998,309109.1695432562
1301.92956,320175.09567534627
1287.838342,331142.6061199921
1274.049912,341933.1791191934
1260.5550779999999,351917.891599935
1247.345017,362027.6295435948
1234.4112519999999,371962.7658222281
1221.74564,381017.18130938226
1209.340352,390901.9007641437
1197.187859,400327.4850459495
1185.28092,408994.1731086532
1173.612564,417756.1699272215
1162.1760800000002,426868.37348595244
1150.9650060000001,435505.0849684853
1139.973115,443788.724317377
1129.194406,452091.1739505108
1118.623093,460290.6899285052
1108.253594,468502.84871406405
1098.0805269999998,476299.96240037546
1088.098695,485116.4606143831
1078.303081,493371.14675575617
1068.688841,502186.16610590025
1059.251295,512330.40247007995
1049.9859199999999,523765.68146549404
1040.8883449999998,536768.9511602208
1031.9543429999999,552378.6215749142
1023.1798259999999,571456.8551746939
1014.5608390000001,593889.6654532079
1006.0935529999999,619536.6113672775
997.774265,648710.0883154077
989.5993858999999,680349.23954562
981.5654412999999,714546.3041798492
973.6690651,750179.2712749487
965.9069952,785160.1291158381
958.2760697000001,820221.1723105861
950.7732231000001,853283.3620631356
943.3954827,884139.0093458233
936.1399648,912992.6437440743
929.0038716,938059.37262746
921.9844879000001,960355.7820708342
915.0791782,979949.4753896777
908.2853836000002,997558.7275388363
901.6006193,1013157.1818061856
895.0224714,1030268.3376521844
888.548595,1049068.9393666936
882.1767113,1071381.2875456524
875.9046055,1099784.586078428
869.7301242999998,1133430.998987526
863.6511742999999,1177406.451551587
857.6657193,1230211.7213825241
851.7717787,1299568.532942319
845.9674256000001,1382363.5669132958
840.2507849,1484023.148615951
834.6200316000001,1607386.1118992863
829.0733892000001,1749410.229312913
823.6091279,1915785.3625107931
818.2255633999999,2107922.042608784
812.9210552000001,2316034.002361196
807.694005,2544404.9302237644
802.5428559,2783305.6638402995
797.4660904,3031193.756937813
792.4622299,3288501.2223213236
787.5298327,3559503.744262716
782.6674933999999,3838159.936061071
777.8738417999999,4117182.026351909
773.1475413,4398820.655223655
768.4872882999999,4670253.333802871
763.8918112000001,4937544.542164521
759.3598692,5191422.377877726
754.8902515999999,5419218.108984405
750.4817767999999,5602363.357556901
746.1332914,5755601.834967688
741.8436694000001,5863546.369689624
737.6118116,5946297.225095628
733.4366444,5998868.079180772
729.3171195,6032402.74263842
725.2522127999999,6039976.302925321
721.2409241,6040709.1642279485
717.282276,6041261.642899613
713.3753136,6042146.88336631
709.5191037000001,6041624.673198368
705.7127343,6043357.642234945
701.9553139,6040044.881523205
698.2459709,6043140.199273608
694.5838534,6041731.3566992115
690.9681281000001,6042707.915765825
687.3979803,6038391.4578128
683.8726131,6042652.151909135
680.3912472999999,6041096.941163005
676.9531202000001,6043116.517412352
673.557486,6044119.524079762
670.2036149,6040137.888755484
666.8907926,6039925.6616815375
663.6183202999999,6041938.109953509
660.3855139,6039716.829724269
657.1917038,6041519.2986295875
654.0362346,6042579.433620334
650.9184646000001,6041393.3918699175
647.8377654,6039946.864198085
644.7935217999999,6040028.823669922
641.7851312999999,6040118.818547228
638.8120038,6042344.269975453
635.8735614,6041619.78403168
632.9692378999999,6041607.759952021
630.0984786,6040712.115342112
627.2607402000001,6042701.232299183
624.4554901,6041325.3165366985
621.6822068,6041428.792841897
618.940379,6041030.959793276
616.2295054,6041815.257117334
613.549095,6041683.385062575
610.8986664,6041254.855883361
608.2777476,6041254.212161752
605.6858758999999,6041515.138451228
603.1225977000001,6041450.462110425
600.5874682,6041626.664191177
598.0800512,6041516.414809391
595.5999188999999,6041674.848444963
593.1466518,6041536.766305951
590.7198384999999,6041425.449528587
588.3190752,6041691.351502711
585.943966,6041430.366693821
583.5941226,6041521.720789243
581.2691637,6041754.538379697
578.9687155,6041435.476670997
576.692411,6041488.665400594
574.4398902,6041573.144996572
572.2107997,6041407.802530683
570.0047927,6041620.439058092
567.8215287,6041465.479474945
565.6606737000001,6041485.254577807
563.5218996,6041671.867295013
561.4048845,6041466.49662449
559.3093121,6041215.807897925
557.2348721,6041375.386709075
555.1812597,6041082.873801625
553.1481756000001,6041191.538133261
551.1353259,6041513.494257063
549.1424218999999,6041598.075393887
547.1691801,6041198.062770927
545.2153222000001,6041158.513425453
543.2805745000001,6041380.775011612
541.3646685,6041025.0785961775
539.46734,6041570.728730165
537.5883299,6041402.306663413
535.7273833,6041304.784120723
533.8842498,6041166.704348036
532.0586836,6041442.412683771
530.2504428000001,6041131.0807690285
528.45929,6041531.394001798
526.6849915,6041354.597495444
524.927318,6042073.5224344125
523.186044,6041338.976065948
521.4609475999999,6041371.2151156925
519.7518110000001,6041569.062886459
518.0584200000001,6041479.203187985
516.3805639,6041291.315611607
514.7180356,6041170.595056422
513.0706316000001,6041412.7395046465
511.43815149999995,6041404.56846125
509.82039860000003,6041334.608519098
508.2171791999999,6041626.790862298
506.628303,6041211.732904343
505.05358269999994,6041807.0269971015
503.4928341,6041219.328905603
501.9458762,6041642.426263777
500.41253059999997,6041561.371782903
498.8926222,6041575.240627447
497.3859785,6041671.222364851
495.89242989999997,6041589.662164156
494.4118094,6041465.1353603965
492.943953,6041586.688042851
491.488699,6041570.898608124
490.04588839999997,6038059.989255472
488.6153648,6023336.20635852
487.19697429999997,5992505.116030565
485.7905654,5941196.762113785
484.39598889999996,5865055.12939111
483.01309800000007,5763735.209450358
481.64174840000004,5634351.3335138615
480.28179789999996,5476909.7211788455
478.93310639999993,5297045.647769803
477.59553619999997,5109284.3020827975
476.2689517,4923177.139794251
474.9532192,4748202.780710292
473.6482074,4589240.2794415625
472.35378679999997,4448684.03330168
471.06982989999995,4328591.500267419
469.79621110000005,4229764.8616724685
468.53280700000005,4143972.638597425
467.2794956999999,4064279.798379054
466.0361575,3985039.5078661833
464.80267410000005,3902021.032274485
463.5789295,3812327.317528755
462.364809,3714144.500653192
461.1601998,3608101.336932034
459.9649909,3495487.496370142
458.7790727,3385023.1112166215
457.6023374,3276850.4145021546
456.4346788,3171520.8425170137
455.2759921,3071156.934622699
454.12617439999997,2975685.896506166
452.9851239,2886154.2821483244
451.85274060000006,2803558.1257574256
450.7289258,2728073.6711670803
449.6135822,2657735.033220242
448.5066141,2593276.326072835
447.407927,2535259.663332373
446.317428,2485068.8946736683
445.23502520000005,2442551.780470361
444.1606283,2408262.7655554703
443.0941482,2381185.6386622363
442.03549699999996,2360552.8333506617
440.9845882,2344412.0707362075
439.9413364,2330899.9254944483
438.9056575,2317717.9994625603
437.87746860000004,2302222.9194400082
436.85668780000003,2281392.38988021
435.8432345,2253564.513979623
434.83702930000004,2216910.779900729
433.83799369999997,2170676.055345935
432.84605039999997,2115326.81857516
431.8611232,2052574.466488804
430.8831369,1984022.569443411
429.9120175,1912675.5810105384
428.94769169999995,1841795.9376039125
427.9900874,1774181.34779803
427.03913370000004,1713029.362995059
426.0947602,1660830.5403484078
425.1568978,1619394.7764818643
424.22547829999996,1588922.3238807332
423.3004343,1569482.4239111575
422.3816994,1560443.86336925
421.4692081,1559971.5456980518
420.56289569999996,1566223.4332897218
419.66269850000003,1575861.9011314209
418.7685535,1586211.662782229
417.8803987,1594459.7837640196
416.9981727,1597643.1401278062
416.12181519999996,1593985.204692193
415.25126639999996,1581437.204952651
414.38646760000006,1559458.4243226603
413.5273605,1528128.8981204138
412.673888,1487931.951715021
411.8259934,1440124.2838998318
410.9836208,1386820.7805967205
410.14671519999996,1329558.6850450658
409.3152221,1270466.2079336452
408.48908789999996,1211238.3369385428
407.66825960000006,1153685.3192143468
406.8526847,1098639.1231777046
406.0423117,1046789.0308982149
405.2370896,998774.3141933472
404.43696800000004,954771.6396940186
403.64189730000004,914744.6873885577
402.8518283,878505.0363032162
402.0667126,845980.8338649317
401.28650239999996,816858.6477738577
400.5111505,791101.3528942894
399.7406101,768211.2114546569
398.9748353,747856.1213055499
398.2137806,730428.4394990178
397.457401,715234.5328284578
396.7056521,702325.7591950911
395.9584903,691476.6382806175
395.2158722,682213.8340599126
394.4777551,673928.0230598062
393.7440968,667084.5892577489
393.0148555,660572.4662966399
392.2899901,653622.211381067
391.56946,645448.2069700315
390.853225,635236.8235262877
390.1412452,622275.7052803625
389.43348169999996,606233.4376001932
388.7298955,586567.0915791058
388.03044839999995,563142.5265483549
387.3351027,536182.2331373587
386.6438209,506276.09842293005
385.95656610000003,473976.8045593083
385.2733019,440135.22434947616
384.5939922,405647.92696037993
383.9186014,370972.9363768641
383.2470943,337117.0152667706
382.5794362,304507.9447901394
381.9155926,273475.78313346714
381.2555296,244513.57838838585
380.59921360000004,217769.6805265752
379.9466115,193292.64763673593
379.29769039999996,171249.82018099408
378.652418,151415.3644421323
378.0107622,134008.05532106734
377.37269130000004,118604.44105603556
376.73817410000004,105350.63877442539
376.1071796,93831.05191682263
375.47967719999997,84023.6119931978
374.8556368,75655.24688780916
374.2350283,68524.77779674006
373.6178223,62559.68040378053
373.0039896,57434.25385199735
372.3935012,53121.75542842748
371.78632860000005,49439.45789971977
371.1824436,46296.61202410518
370.5818182,43588.6912011722
369.98442489999996,41233.018181660416
369.39023629999997,39165.86681815556
368.7992255,37354.5791934763
368.2113658,35733.287252381524
367.6266307,34313.615615784496
367.0449943,32993.360606202754
366.4664305,31791.06749113617
365.89091410000003,30681.49473985313
365.3184196,29624.878300645472
364.7489221,28610.630725037343
364.18239689999996,27643.606043700973
363.61881960000005,26708.322413058268
363.058166,25784.047864707714
362.50041219999997,24859.52180460291
361.94553460000003,23931.373895060675
361.3935098,23012.00688714128
360.8443147,22142.815237071656
360.29792630000003,21266.43914806044
359.754322,20437.38693955574
359.2134795,19622.521483173845
358.6753765,18828.845084257242
358.1399912,18075.535325665245
357.6073018,17349.970782723023
357.077287,16645.487792466833
356.5499253,15953.049785504883
356.025196,15276.148505502759
355.50307799999996,14598.929026905847
354.983551,13948.575147887916
354.4665945,13294.703212340375
353.95218839999995,12663.415025723072
353.4403127,12032.154730223609
352.9309478,11422.741334789209
352.42407410000004,10823.045463335358
351.9196722,10238.315965124775
351.4177232,9665.352078906908
350.91820789999997,9118.936296610125
350.4211078,8591.86438583856
349.9264043,8088.649446694154
349.434079,7616.029490242612
348.9441137,7173.5103676146755
348.45649060000005,6769.396884026783
347.97119169999996,6398.138046673205
347.48819960000003,6034.594174025715
347.0074967,5706.712777572808
346.5290657,5403.050373759802
346.0528897,5123.426857625991
345.5789517,4845.776575684709
345.1072349,4591.7484670107815
344.6377228,4340.042742129964
344.17039889999995,4117.4130460291135
343.70524710000007,3894.4392015003086
343.24225110000003,3699.930984354453
342.7813952,3507.774149242579
342.32266339999995,3327.407282232247
341.8660403,3155.0068099074188
341.4115102,2990.9428617692884
340.959058,2840.490245425929
340.5086685,2691.149205135874
340.06032660000005,2551.261774490026
339.6140175,2408.108525096908
339.1697264,2271.9943570358523
338.7274388,2143.3336658649564
338.28714019999995,2017.0903007426132
337.8488164,1880.8682163102271
337.41245310000005,1747.0022273455866
336.9780363,1600.7435691919836
336.5455522,1448.4018314849575
336.114987,1298.660161600666
335.686327,1151.242653277724
335.2595588,1006.8717838588398
334.834669,866.3917181404972
334.4116443,742.6592629875612
333.9904716,627.4518102561916
333.57113799999996,526.2718442059011
333.1536305,436.07716253525575
332.73793639999997,355.0892246372597
332.32404310000004,286.94860859811206
331.91193799999996,234.23731582239878
331.5016088,171.69141920659501
331.0930432,135.01759131632178
330.6862289,102.08756043428608
330.281154,76.26820892002125
329.8778065,51.36568048362732
329.47617460000004,36.11978044865182
329.07624649999997,26.94295796976327
328.6780106,14.902966063673539
328.2814555,13.151347062614315
327.88656960000003,7.202481149102486
327.4933418,-1.241890185568408
327.1017607,2.754345730811784
326.7118154,0.9164649668269929
326.32349480000005,0.5392303436262801
325.93678789999996,-2.9349731062083277
325.5516841,3.055138355096982
325.16817260000005,1.9058510455036468
324.7862428,1.123054694782357
324.40588419999995,-2.568281931245191
324.0270864,2.4777921194602093
323.649839,0.4763558934234183
323.2741319,-1.6544759339133752
322.8999548,0.6937970320688036
322.5272977,-1.6228183218593275
322.1561508,-0.4567227849507135
321.786504,3.0590811147387096
321.4183476,0.5764290614438597
321.0516719,1.8482176464052096
320.6864673,3.0640288874605046
320.3227243,-1.9378944346632896
319.96043330000003,3.0657575285675955
319.5995851,-1.1067758886882393
319.2401704,-1.5734052742781732
318.8821799,-4.6988313360670695
318.5256045,-1.564469530358025
318.1704352,2.8367495671510903
317.8166631,-0.4328673155167686
317.4642791,-2.7201247605033467
317.1132746,1.028054694200906
316.76364069999994,1.8992571175026625
316.4153688,0.1463330130203253
316.06845039999996,0.8327220794991426
315.72287689999996,2.116426703681748
315.37863980000003,3.4947351507915814
315.0357308,-0.8532266305888635
314.6941415,-0.7083783893598531
314.3538639,-1.7605826939269271
314.0148896,0.013855541419148274
313.6772106,0.1340763912980599
313.3408189,-3.533161374052985
313.00570639999995,1.5100086991212107
312.67186549999997,0.5103154397294708
312.33928810000003,-2.7544105395832923
312.0079665,-0.6439704628345648
311.6778931,-2.2285276392180107
311.34906010000003,0.530667215467589
311.0214601,-0.9534946711118248
310.6950856,1.3453678000855396
310.369929,1.6995065348726603
310.04598300000004,4.0053441183454535
309.7232403,3.605024450714229
309.4016935,3.1545324876504934
309.0813356,1.377891293593488
308.7621594,-4.701648699629579
308.4441577,2.2472805869089725
308.1273236,0.3877129830189674
307.8116501,-2.7384491229372183
307.49713019999996,-0.502573131777272
307.18375710000004,2.5354349826839466
306.871524,2.3875011294067643
306.5604242,2.054064424468799
306.2504509,0.33728154620618456
